# Matter power spectrum P(k) at redshift z=1
# for k=2.38726e-07 to 11.9777 h/Mpc,
# number of wavenumbers equal to 139
#    1:k (h/Mpc)              2:P (Mpc/h)^3        
       2.387256235384e-07       2.452740414593e-01 
       3.005377539189e-07       3.063526115734e-01 
       3.783546156120e-07       3.826410737790e-01 
       4.763202402635e-07       4.779270219036e-01 
       5.996516546197e-07       5.969412427990e-01 
       7.549167062251e-07       7.455925919440e-01 
       9.503838252548e-07       9.312613578160e-01 
       1.196462348571e-06       1.163165680398e+00 
       1.506256854871e-06       1.452819215097e+00 
       1.896265031287e-06       1.814602764315e+00 
       2.387256235384e-06       2.266478256023e+00 
       3.005377539189e-06       2.830880514775e+00 
       3.783546156120e-06       3.535831096426e+00 
       4.763202402635e-06       4.416329478876e+00 
       5.996516546197e-06       5.516090662179e+00 
       7.549167062251e-06       6.889715416244e+00 
       9.503838252548e-06       8.605400863903e+00 
       1.196462348571e-05       1.074832585052e+01 
       1.506256854871e-05       1.342487893393e+01 
       1.896265031287e-05       1.676793842908e+01 
       2.387256235384e-05       2.094346569158e+01 
       3.005377539189e-05       2.615873710338e+01 
       3.783546156120e-05       3.267261972357e+01 
       4.763202402635e-05       4.080839339254e+01 
       5.996516546197e-05       5.096974127525e+01 
       7.549167062251e-05       6.366067397634e+01 
       9.503838252548e-05       7.951031960490e+01 
       1.196462348571e-04       9.930369913618e+01 
       1.506256854871e-04       1.240197967957e+02 
       1.896265031287e-04       1.548783918404e+02 
       2.387256235384e-04       1.933971624976e+02 
       3.005377539189e-04       2.414603596559e+02 
       3.783546156120e-04       3.013996359270e+02 
       4.763202402635e-04       3.760860788395e+02 
       5.996516546197e-04       4.690298670739e+02 
       7.549167062251e-04       5.844804162227e+02 
       9.503838252548e-04       7.275162091618e+02 
       1.196462348571e-03       9.041086548021e+02 
       1.506256854871e-03       1.121126709934e+03 
       1.896265031287e-03       1.386199968767e+03 
       2.387256235384e-03       1.707320484463e+03 
       3.005377539189e-03       2.092099043425e+03 
       3.783546156120e-03       2.546551362241e+03 
       4.763202402635e-03       3.073237479015e+03 
       5.996516546197e-03       3.659239992427e+03 
       7.549167062251e-03       4.305241381151e+03 
       9.503838252548e-03       4.976719850669e+03 
       1.196462348571e-02       5.625637096288e+03 
       1.506256854871e-02       6.179810154648e+03 
       1.896265031266e-02       6.543318662854e+03 
       2.387256154643e-02       6.611155520726e+03 
       3.005335184148e-02       6.312460340380e+03 
       3.779217380862e-02       5.687927381327e+03 
       4.654409121297e-02       4.995181466238e+03 
       5.339937896784e-02       4.570286638156e+03 
       5.849162069914e-02       4.321995274174e+03 
       6.277679351032e-02       4.144569186618e+03 
       6.664423025507e-02       3.998638021772e+03 
       7.027409895927e-02       3.866316123349e+03 
       7.376450184889e-02       3.738143710503e+03 
       7.717547063995e-02       3.608894908886e+03 
       8.054704928783e-02       3.475945966249e+03 
       8.390780716157e-02       3.338516675284e+03 
       8.727927648640e-02       3.197229297654e+03 
       9.067845296663e-02       3.053772284569e+03 
       9.411929411518e-02       2.910582350769e+03 
       9.761366242097e-02       2.770514365351e+03 
       1.011719434699e-01       2.636500332956e+03 
       1.048034647346e-01       2.511212699140e+03 
       1.085167872183e-01       2.396756615250e+03 
       1.123199131870e-01       2.294413817320e+03 
       1.162204368449e-01       2.204459411957e+03 
       1.202256551779e-01       2.126070122689e+03 
       1.243426503393e-01       2.057342686230e+03 
       1.285783512956e-01       1.995444395912e+03 
       1.329395801171e-01       1.936916869619e+03 
       1.374330867755e-01       1.878138266396e+03 
       1.420655753105e-01       1.815912250048e+03 
       1.468437235570e-01       1.748093301148e+03 
       1.517741981851e-01       1.674099255705e+03 
       1.568636665076e-01       1.595137834159e+03 
       1.621188063166e-01       1.514016879309e+03 
       1.675463148861e-01       1.434524235993e+03 
       1.731529181990e-01       1.360508444862e+03 
       1.789453814053e-01       1.294900502834e+03 
       1.849305214902e-01       1.238938130162e+03 
       1.911152231070e-01       1.191799247787e+03 
       1.975064585213e-01       1.150769310989e+03 
       2.041113125994e-01       1.111980613796e+03 
       2.109370137746e-01       1.071624644846e+03 
       2.179909719270e-01       1.027308514385e+03 
       2.252808241326e-01       9.789990382139e+02 
       2.328144892768e-01       9.290162288881e+02 
       2.406002325993e-01       8.809515969080e+02 
       2.486467413529e-01       8.379874579041e+02 
       2.569632129343e-01       8.014389150010e+02 
       2.655594570995e-01       7.702134442052e+02 
       2.744460142323e-01       7.414580498189e+02 
       2.836342921208e-01       7.121469067564e+02 
       2.931367243516e-01       6.808111550276e+02 
       3.029669543004e-01       6.483085720750e+02 
       3.131400498520e-01       6.170141428686e+02 
       3.236727555027e-01       5.889893309060e+02 
       3.345837905189e-01       5.645116088381e+02 
       3.458942045187e-01       5.420475181960e+02 
       3.576278054641e-01       5.196533218909e+02 
       3.698116799762e-01       4.966337575291e+02 
       3.824768326566e-01       4.739401419663e+02 
       3.956589805441e-01       4.529348410167e+02 
       4.093995521994e-01       4.338825629883e+02 
       4.237469601281e-01       4.158125690543e+02 
       4.387582433741e-01       3.978081817213e+02 
       4.545012190380e-01       3.800529938643e+02 
       4.710573452883e-01       3.632733569728e+02 
       4.885255977620e-01       3.475147778283e+02 
       5.070278197842e-01       3.321660465913e+02 
       5.267162669537e-01       3.170312821822e+02 
       5.477845068260e-01       3.024363224374e+02 
       5.704836056901e-01       2.883267880445e+02 
       5.951469398027e-01       2.743714340771e+02 
       6.222296457516e-01       2.606020005802e+02 
       6.523740896416e-01       2.469430569813e+02 
       6.865241211120e-01       2.331566580922e+02 
       7.261366520269e-01       2.191043011514e+02 
       7.736016373185e-01       2.044521709911e+02 
       8.331434790797e-01       1.887572923004e+02 
       9.129056266177e-01       1.712780860737e+02 
       1.029825506130e+00       1.508758547644e+02 
       1.217273657641e+00       1.264857768889e+02 
       1.509145603464e+00       1.001336790896e+02 
       1.898361833280e+00       7.662818556862e+01 
       2.389874481796e+00       5.694695794966e+01 
       3.008673660548e+00       4.083635653803e+01 
       3.787695727040e+00       2.816885045930e+01 
       4.768426402915e+00       1.872717393616e+01 
       6.003093172900e+00       1.206293130001e+01 
       7.557446544732e+00       7.574768027799e+00 
       9.514261503439e+00       4.663168437121e+00 
       1.197774558113e+01       2.827918800413e+00 
