# Matter power spectrum P(k) at redshift z=2
# for k=2.07434e-07 to 10.4102 h/Mpc,
# number of wavenumbers equal to 139
#    1:k (h/Mpc)              2:P (Mpc/h)^3        
       2.074339284640e-07       2.375592163235e-01 
       2.611438438116e-07       2.967576228714e-01 
       3.287606211081e-07       3.707079356859e-01 
       4.138851003102e-07       4.630862456085e-01 
       5.210504703435e-07       5.784847047032e-01 
       6.559636779427e-07       7.226398024456e-01 
       8.258093433760e-07       9.027175279965e-01 
       1.039632367673e-06       1.127669592653e+00 
       1.308819606587e-06       1.408678420063e+00 
       1.647706262187e-06       1.759713024610e+00 
       2.074339284640e-06       2.198223405997e+00 
       2.611438438116e-06       2.746007979747e+00 
       3.287606211081e-06       3.430297153211e+00 
       4.138851003102e-06       4.285106898061e+00 
       5.210504703434e-06       5.352929576768e+00 
       6.559636779427e-06       6.686846021551e+00 
       8.258093433760e-06       8.353163742454e+00 
       1.039632367673e-05       1.043471218552e+01 
       1.308819606587e-05       1.303495843194e+01 
       1.647706262187e-05       1.628314703284e+01 
       2.074339284640e-05       2.034071779622e+01 
       2.611438438116e-05       2.540931715643e+01 
       3.287606211081e-05       3.174079465402e+01 
       4.138851003102e-05       3.964966820636e+01 
       5.210504703435e-05       4.952865155045e+01 
       6.559636779427e-05       6.186796400020e+01 
       8.258093433760e-05       7.727928022810e+01 
       1.039632367673e-04       9.652530977974e+01 
       1.308819606587e-04       1.205560832718e+02 
       1.647706262187e-04       1.505529826675e+02 
       2.074339284640e-04       1.879812270250e+02 
       2.611438438116e-04       2.346506181010e+02 
       3.287606211081e-04       2.927823755622e+02 
       4.138851003102e-04       3.650761660047e+02 
       5.210504703435e-04       4.547653632245e+02 
       6.559636779427e-04       5.656406737517e+02 
       8.258093433760e-04       7.020160233711e+02 
       1.039632367673e-03       8.686121922862e+02 
       1.308819606587e-03       1.070337043728e+03 
       1.647706262187e-03       1.311895258447e+03 
       2.074339284640e-03       1.597039464705e+03 
       2.611438438116e-03       1.927366290369e+03 
       3.287606211081e-03       2.300875190393e+03 
       4.138851003102e-03       2.710256558470e+03 
       5.210504703435e-03       3.141109846741e+03 
       6.559636779427e-03       3.568104093772e+03 
       8.258093433760e-03       3.963174281988e+03 
       1.039632367673e-02       4.284234192329e+03 
       1.308819606587e-02       4.485150678151e+03 
       1.647706262187e-02       4.519604806255e+03 
       2.074339282961e-02       4.351937622203e+03 
       2.611436162263e-02       3.976029926535e+03 
       3.287101951601e-02       3.439426478719e+03 
       4.113571616261e-02       2.862527534241e+03 
       4.902796019060e-02       2.444471409597e+03 
       5.467822775683e-02       2.210458859427e+03 
       5.917646906966e-02       2.049872922402e+03 
       6.311864372334e-02       1.921217346085e+03 
       6.675647381674e-02       1.809211814193e+03 
       7.021716798665e-02       1.707149333647e+03 
       7.357452677091e-02       1.611880101540e+03 
       7.687584929691e-02       1.521993203739e+03 
       8.015383140470e-02       1.437001760535e+03 
       8.343248199269e-02       1.356906381183e+03 
       8.673033797122e-02       1.281924463629e+03 
       9.006233593338e-02       1.212306447618e+03 
       9.344096323673e-02       1.148206415500e+03 
       9.687699813108e-02       1.089595384474e+03 
       1.003800033701e-01       1.036212480720e+03 
       1.039586655149e-01       9.875530252668e+02 
       1.076210340529e-01       9.428928069442e+02 
       1.113746933690e-01       9.013477224105e+02 
       1.152268884307e-01       8.619653620303e+02 
       1.191846177707e-01       8.238396444527e+02 
       1.232547028594e-01       7.862335003606e+02 
       1.274438401258e-01       7.486871432298e+02 
       1.317586400495e-01       7.110858091199e+02 
       1.362056565516e-01       6.736644693265e+02 
       1.407914091097e-01       6.369385642444e+02 
       1.455223994998e-01       6.015698585357e+02 
       1.504051247091e-01       5.681953631255e+02 
       1.554460873352e-01       5.372617125105e+02 
       1.606518046322e-01       5.089084961778e+02 
       1.660288172709e-01       4.829340253022e+02 
       1.715836988138e-01       4.588567196845e+02 
       1.773230668728e-01       4.360599397293e+02 
       1.832535968908e-01       4.139801912137e+02 
       1.893820394717e-01       3.922766908061e+02 
       1.957152421760e-01       3.709169243641e+02 
       2.022601766893e-01       3.501400924766e+02 
       2.090239722750e-01       3.303122530401e+02 
       2.160139564291e-01       3.117394231276e+02 
       2.232377036867e-01       2.945263413936e+02 
       2.307030935793e-01       2.785450350360e+02 
       2.384183788336e-01       2.635208860700e+02 
       2.463922650422e-01       2.491825888904e+02 
       2.546340032441e-01       2.353883172203e+02 
       2.631534971453e-01       2.221570757883e+02 
       2.719614271206e-01       2.095971626247e+02 
       2.810693936847e-01       1.977926307934e+02 
       2.904900838612e-01       1.867315494520e+02 
       3.002374648518e-01       1.763191617477e+02 
       3.103270107016e-01       1.664494077449e+02 
       3.207759693657e-01       1.570667288743e+02 
       3.316036798516e-01       1.481696022287e+02 
       3.428319521597e-01       1.397671709846e+02 
       3.544855268505e-01       1.318409059244e+02 
       3.665926366972e-01       1.243467335186e+02 
       3.791857006636e-01       1.172433679704e+02 
       3.923021913893e-01       1.105083620711e+02 
       4.059857329625e-01       1.041277375305e+02 
       4.202875083899e-01       9.808059521151e+01 
       4.352680895840e-01       9.233981862149e+01 
       4.509998530198e-01       8.688188439197e+01 
       4.675702216536e-01       8.168830764746e+01 
       4.850860957416e-01       7.673974139927e+01 
       5.036800326219e-01       7.201462953466e+01 
       5.235190643814e-01       6.749199815447e+01 
       5.448176083573e-01       6.315095935876e+01 
       5.678569362682e-01       5.896886721154e+01 
       5.930155499962e-01       5.492072225682e+01 
       6.208184870313e-01       5.097912820839e+01 
       6.520211516028e-01       4.711128421307e+01 
       6.877598547239e-01       4.327745954007e+01 
       7.298401131093e-01       3.942550307437e+01 
       7.813313691604e-01       3.548438683094e+01 
       8.478951019422e-01       3.135053457049e+01 
       9.409245730715e-01       2.687692249391e+01 
       1.084245343296e+00       2.193347110188e+01 
       1.316350594940e+00       1.678871472550e+01 
       1.650075137311e+00       1.244257067458e+01 
       2.077108522216e+00       9.232680552404e+00 
       2.614923377777e+00       6.846159704803e+00 
       3.291993488883e+00       5.036307684760e+00 
       4.144374258616e+00       3.650945039272e+00 
       5.217458070157e+00       2.593658537244e+00 
       6.568390549492e+00       1.798321877457e+00 
       8.269113777344e+00       1.213895991973e+00 
       1.041019746732e+01       7.968947232843e-01 
