# Matter power spectrum P(k) at redshift z=0
# for k=1.63313e-07 to 10.3149 h/Mpc,
# number of wavenumbers equal to 140
#    1:k (h/Mpc)              2:P (Mpc/h)^3        
       1.633128944109e-07       1.833351201255e+00 
       2.055987528475e-07       2.285470747844e+00 
       2.588334945929e-07       2.849086706920e+00 
       3.258520637665e-07       3.551695012782e+00 
       4.102234435612e-07       4.427572322360e+00 
       5.164407176129e-07       5.519448195525e+00 
       6.501603430881e-07       6.880589647207e+00 
       8.185033776545e-07       8.577399763704e+00 
       1.030434701769e-06       1.069265715218e+01 
       1.297240431251e-06       1.332955425156e+01 
       1.633128944109e-06       1.661673149656e+01 
       2.055987528475e-06       2.071455289479e+01 
       2.588334945929e-06       2.582292910623e+01 
       3.258520637665e-06       3.219106954948e+01 
       4.102234435612e-06       4.012963903873e+01 
       5.164407176129e-06       5.002591153436e+01 
       6.501603430881e-06       6.236265930228e+01 
       8.185033776545e-06       7.774169710737e+01 
       1.030434701769e-05       9.691322624887e+01 
       1.297240431251e-05       1.208124026023e+02 
       1.633128944109e-05       1.506048979485e+02 
       2.055987528475e-05       1.877436483590e+02 
       2.588334945929e-05       2.340395010254e+02 
       3.258520637665e-05       2.917490934404e+02 
       4.102234435612e-05       3.636840304469e+02 
       5.164407176129e-05       4.533462496322e+02 
       6.501603430881e-05       5.650953252780e+02 
       8.185033776545e-05       7.043542080617e+02 
       1.030434701769e-04       8.778602170381e+02 
       1.297240431251e-04       1.093967372678e+03 
       1.633128944109e-04       1.363003282511e+03 
       2.055987528475e-04       1.697677023518e+03 
       2.588334945929e-04       2.113521650683e+03 
       3.258520637665e-04       2.629334857637e+03 
       4.102234435612e-04       3.267556624141e+03 
       5.164407176129e-04       4.054500606563e+03 
       6.501603430881e-04       5.020326847831e+03 
       8.185033776545e-04       6.198522873861e+03 
       1.030434701769e-03       7.624362989012e+03 
       1.297240431251e-03       9.331710106772e+03 
       1.633128944109e-03       1.134779049115e+04 
       2.055987528475e-03       1.368526125791e+04 
       2.588334945929e-03       1.633170682966e+04 
       3.258520637665e-03       1.923692756110e+04 
       4.102234435612e-03       2.229703357815e+04 
       5.164407176129e-03       2.529743683841e+04 
       6.501603430881e-03       2.804962944259e+04 
       8.185033776545e-03       3.017636353378e+04 
       1.030434701769e-02       3.124404220291e+04 
       1.297240431249e-02       3.077998535164e+04 
       1.633128931386e-02       2.841393770351e+04 
       2.055977787345e-02       2.417408517674e+04 
       2.586980248736e-02       1.886978570754e+04 
       3.213245663708e-02       1.427111350560e+04 
       3.742284594083e-02       1.196420737336e+04 
       4.125775185215e-02       1.095993282371e+04 
       4.441850284252e-02       1.038961196385e+04 
       4.723980839820e-02       9.980222454637e+03 
       4.987072059766e-02       9.621946605482e+03 
       5.239006491702e-02       9.261389884064e+03 
       5.484507740124e-02       8.871679728516e+03 
       5.726677170712e-02       8.441824252445e+03 
       5.967699734568e-02       7.971924179746e+03 
       6.209205085299e-02       7.470250036953e+03 
       6.452468162301e-02       6.950815345200e+03 
       6.698528006364e-02       6.430999420701e+03 
       6.948261859955e-02       5.929182939094e+03 
       7.202433360977e-02       5.462542271168e+03 
       7.461724989761e-02       5.045208140299e+03 
       7.726760547688e-02       4.686946657731e+03 
       7.998121100392e-02       4.392410275664e+03 
       8.276356502880e-02       4.160886649251e+03 
       8.561993856131e-02       3.986410665151e+03 
       8.855543781163e-02       3.858150148524e+03 
       9.157505108547e-02       3.761124026648e+03 
       9.468368398066e-02       3.677474551509e+03 
       9.788618584309e-02       3.588548229865e+03 
       1.011873696578e-01       3.477820482890e+03 
       1.045920270309e-01       3.334230754073e+03 
       1.081049395732e-01       3.154981769143e+03 
       1.117308877646e-01       2.946642459651e+03 
       1.154746582288e-01       2.723767788537e+03 
       1.193410502487e-01       2.505172872019e+03 
       1.233348822899e-01       2.309013229634e+03 
       1.274609992627e-01       2.148283583128e+03 
       1.317242812243e-01       2.027952685209e+03 
       1.361296542134e-01       1.944104881679e+03 
       1.406821038929e-01       1.884951354027e+03 
       1.453866926738e-01       1.833713835309e+03 
       1.502485809889e-01       1.773458674991e+03 
       1.552730533853e-01       1.693016755148e+03 
       1.604655501187e-01       1.591497111487e+03 
       1.658317049544e-01       1.478482959327e+03 
       1.713773899280e-01       1.369163017393e+03 
       1.771087678937e-01       1.276985387541e+03 
       1.830323538033e-01       1.207808033481e+03 
       1.891550858317e-01       1.158010464053e+03 
       1.954844076987e-01       1.116874759621e+03 
       2.020283638691e-01       1.072344129506e+03 
       2.087957097527e-01       1.017796832518e+03 
       2.157960396158e-01       9.556369987378e+02 
       2.230399356946e-01       8.946508197660e+02 
       2.305391430352e-01       8.430681339920e+02 
       2.383067759456e-01       8.028490625603e+02 
       2.463575637709e-01       7.691415388163e+02 
       2.547081461397e-01       7.348510646379e+02 
       2.633774311453e-01       6.967057683632e+02 
       2.723870344694e-01       6.574516710889e+02 
       2.817618237732e-01       6.220506057086e+02 
       2.915306015978e-01       5.922075170319e+02 
       3.017269727903e-01       5.651461284932e+02 
       3.123904610956e-01       5.375021122806e+02 
       3.235679672138e-01       5.093320626577e+02 
       3.353157025329e-01       4.830884523876e+02 
       3.477017976772e-01       4.595138705734e+02 
       3.608098880907e-01       4.368704785184e+02 
       3.747441470044e-01       4.142116701076e+02 
       3.896365187817e-01       3.925506289552e+02 
       4.056573971851e-01       3.721593073495e+02 
       4.230318812623e-01       3.520898795423e+02 
       4.420654174135e-01       3.323906349311e+02 
       4.631859580166e-01       3.132147877647e+02 
       4.870167304715e-01       2.940333940010e+02 
       5.145092579403e-01       2.747856816490e+02 
       5.472034588727e-01       2.550361087266e+02 
       5.877768066119e-01       2.343168124274e+02 
       6.412973509929e-01       2.118196543130e+02 
       7.181847466543e-01       1.863618179711e+02 
       8.397199642014e-01       1.568062652785e+02 
       1.033265625657e+00       1.251146303799e+02 
       1.298608642773e+00       9.737776081180e+01 
       1.634809437842e+00       7.502146127759e+01 
       2.058102987268e+00       5.699224807840e+01 
       2.590998150678e+00       4.249242886248e+01 
       3.261873413801e+00       3.097047251003e+01 
       4.106455330689e+00       2.200116589008e+01 
       5.169720968202e+00       1.521481179183e+01 
       6.508293098755e+00       1.025034195789e+01 
       8.193455569427e+00       6.742344316621e+00 
       1.031494942676e+01       4.342559772129e+00 
