# Matter power spectrum P(k) at redshift z=2
# for k=2.27178e-07 to 11.4015 h/Mpc,
# number of wavenumbers equal to 139
#    1:k (h/Mpc)              2:P (Mpc/h)^3        
       2.271780468130e-07       9.875189520956e-02 
       2.860002161347e-07       1.233262252853e-01 
       3.600529398706e-07       1.540158576815e-01 
       4.532797955943e-07       1.923425805158e-01 
       5.706454533265e-07       2.402068775132e-01 
       7.184000623175e-07       2.999821662655e-01 
       9.044120942860e-07       3.746324872356e-01 
       1.138587368231e-06       4.678594797684e-01 
       1.433396571413e-06       5.842859325137e-01 
       1.804539368931e-06       7.296850106105e-01 
       2.271780468130e-06       9.112665244212e-01 
       2.860002161347e-06       1.138034435696e+00 
       3.600529398706e-06       1.421233326648e+00 
       4.532797955943e-06       1.774905968672e+00 
       5.706454533265e-06       2.216589632957e+00 
       7.184000623175e-06       2.768185662925e+00 
       9.044120942860e-06       3.457045407858e+00 
       1.138587368231e-05       4.317326328438e+00 
       1.433396571413e-05       5.391685446795e+00 
       1.804539368931e-05       6.733393971458e+00 
       2.271780468130e-05       8.408977672736e+00 
       2.860002161347e-05       1.050151336761e+01 
       3.600529398706e-05       1.311474388597e+01 
       4.532797955943e-05       1.637821335901e+01 
       5.706454533265e-05       2.045367317396e+01 
       7.184000623175e-05       2.554306766715e+01 
       9.044120942860e-05       3.189847877297e+01 
       1.138587368231e-04       3.983448951583e+01 
       1.433396571413e-04       4.974351442326e+01 
       1.804539368931e-04       6.211472993358e+01 
       2.271780468130e-04       7.755729726738e+01 
       2.860002161347e-04       9.682855798732e+01 
       3.600529398706e-04       1.208677157606e+02 
       4.532797955943e-04       1.508350654306e+02 
       5.706454533265e-04       1.881559290674e+02 
       7.184000623175e-04       2.345670153350e+02 
       9.044120942860e-04       2.921611301040e+02 
       1.138587368231e-03       3.634244904290e+02 
       1.433396571413e-03       4.512581070040e+02 
       1.804539368931e-03       5.589629127820e+02 
       2.271780468130e-03       6.901377315622e+02 
       2.860002161347e-03       8.484385362823e+02 
       3.600529398706e-03       1.037162746966e+03 
       4.532797955943e-03       1.257121915896e+03 
       5.706454533265e-03       1.510603162988e+03 
       7.184000623175e-03       1.793043532002e+03 
       9.044120942860e-03       2.095056862106e+03 
       1.138587368231e-02       2.398884491875e+03 
       1.433396571413e-02       2.675824696721e+03 
       1.804539368758e-02       2.885442110698e+03 
       2.271780070970e-02       2.980775852307e+03 
       2.859866780290e-02       2.926125946805e+03 
       3.590808753419e-02       2.731445120682e+03 
       4.360416518600e-02       2.504788950386e+03 
       4.926311890327e-02       2.361502130237e+03 
       5.361396452440e-02       2.267106291100e+03 
       5.735477454293e-02       2.193783677422e+03 
       6.077038351915e-02       2.130125066951e+03 
       6.399859876220e-02       2.070479030997e+03 
       6.711692289355e-02       2.011680274403e+03 
       7.017390682465e-02       1.951913241123e+03 
       7.320252261301e-02       1.890247155667e+03 
       7.622663607204e-02       1.826411303822e+03 
       7.926445223581e-02       1.760659944373e+03 
       8.233048904597e-02       1.693663145485e+03 
       8.543677552054e-02       1.626397353411e+03 
       8.859361404045e-02       1.560025933765e+03 
       9.181008431891e-02       1.495768375622e+03 
       9.509438733138e-02       1.434764671771e+03 
       9.845408626036e-02       1.377944028497e+03 
       1.018962789495e-01       1.325908392427e+03 
       1.054277234706e-01       1.278842911375e+03 
       1.090549307618e-01       1.236464715330e+03 
       1.127842336173e-01       1.198022328939e+03 
       1.166218383686e-01       1.162356867630e+03 
       1.205738637103e-01       1.128033429701e+03 
       1.246463698880e-01       1.093542415409e+03 
       1.288453806509e-01       1.057552739359e+03 
       1.331768998313e-01       1.019177363932e+03 
       1.376469240472e-01       9.781895996872e+02 
       1.422614527893e-01       9.351210062959e+02 
       1.470264969948e-01       8.911886604621e+02 
       1.519480871098e-01       8.480412224981e+02 
       1.570322815790e-01       8.073705993662e+02 
       1.622851766610e-01       7.704820697982e+02 
       1.677129184442e-01       7.379375694071e+02 
       1.733217179196e-01       7.093765257411e+02 
       1.791178699584e-01       6.835858298549e+02 
       1.851077770337e-01       6.588423672114e+02 
       1.912979785255e-01       6.334689729645e+02 
       1.976951864545e-01       6.064415183071e+02 
       2.043063285099e-01       5.777977045533e+02 
       2.111385992807e-01       5.486228669065e+02 
       2.181995206698e-01       5.205632818037e+02 
       2.254970125902e-01       4.950663546045e+02 
       2.330394752122e-01       4.727072303582e+02 
       2.408358842817e-01       4.529357250103e+02 
       2.488959013769e-01       4.343926566744e+02 
       2.572300014395e-01       4.156741053937e+02 
       2.658496205512e-01       3.961416835529e+02 
       2.747673277622e-01       3.762586962624e+02 
       2.839970258912e-01       3.571825919180e+02 
       2.935541876809e-01       3.398829057765e+02 
       3.034561356437e-01       3.244398545596e+02 
       3.137223765333e-01       3.100566485748e+02 
       3.243750048891e-01       2.957776542382e+02 
       3.354391948834e-01       2.813066191516e+02 
       3.469438063029e-01       2.671657197612e+02 
       3.589221397366e-01       2.540392878381e+02 
       3.714128891620e-01       2.420119060004e+02 
       3.844613590765e-01       2.305419999863e+02 
       3.981210411664e-01       2.191688248052e+02 
       4.124556872398e-01       2.080362277947e+02 
       4.275420789951e-01       1.975370204750e+02 
       4.434737951794e-01       1.876507723207e+02 
       4.603664373027e-01       1.780223457366e+02 
       4.783650405181e-01       1.685789077126e+02 
       4.976548491730e-01       1.595184137311e+02 
       5.184774373548e-01       1.507743421100e+02 
       5.411556292582e-01       1.421585826317e+02 
       5.661335165740e-01       1.337175920513e+02 
       5.940436429364e-01       1.253859468414e+02 
       6.258258647454e-01       1.170376230507e+02 
       6.629510304656e-01       1.085981789663e+02 
       7.078732905135e-01       9.988340202174e+01 
       7.650201128649e-01       9.065881642551e+01 
       8.431124006901e-01       8.055786653624e+01 
       9.604320869595e-01       6.911107465405e+01 
       1.150455456227e+00       5.631782133406e+01 
       1.435810727355e+00       4.409868008365e+01 
       1.807019044087e+00       3.417174995902e+01 
       2.274896895591e+00       2.617559148873e+01 
       2.863925502445e+00       1.965057717911e+01 
       3.605468592512e+00       1.435474494425e+01 
       4.539016032539e+00       1.015154155820e+01 
       5.714282627905e+00       6.932966430295e+00 
       7.193855610443e+00       4.577180706562e+00 
       9.056527636765e+00       2.932775020732e+00 
       1.140149278454e+01       1.833048450899e+00 
