# Matter power spectrum P(k) at redshift z=0
# for k=2.24252e-07 to 11.2533 h/Mpc,
# number of wavenumbers equal to 139
#    1:k (h/Mpc)              2:P (Mpc/h)^3        
       2.242517329970e-07       1.172598644858e+00 
       2.823162053088e-07       1.459349749107e+00 
       3.554150450246e-07       1.816223905021e+00 
       4.474410319154e-07       2.260369232380e+00 
       5.632948853578e-07       2.813127307710e+00 
       7.091462455106e-07       3.501058645445e+00 
       8.927622291517e-07       4.357218953260e+00 
       1.123921056969e-06       5.422747486007e+00 
       1.414932779469e-06       6.748843819262e+00 
       1.781294832054e-06       8.399228026227e+00 
       2.242517329970e-06       1.045320246773e+01 
       2.823162053088e-06       1.300946230830e+01 
       3.554150450246e-06       1.619083784384e+01 
       4.474410319154e-06       2.015019648107e+01 
       5.632948853578e-06       2.507778790495e+01 
       7.091462455106e-06       3.121038525917e+01 
       8.927622291517e-06       3.884266134412e+01 
       1.123921056969e-05       4.834134601360e+01 
       1.414932779469e-05       6.016284413287e+01 
       1.781294832054e-05       7.487515887073e+01 
       2.242517329970e-05       9.318517022282e+01 
       2.823162053088e-05       1.159725725747e+02 
       3.554150450246e-05       1.443320883145e+02 
       4.474410319154e-05       1.796259589182e+02 
       5.632948853578e-05       2.235491826527e+02 
       7.091462455106e-05       2.782105293836e+02 
       8.927622291517e-05       3.462330211948e+02 
       1.123921056969e-04       4.308783088391e+02 
       1.414932779469e-04       5.362001491229e+02 
       1.781294832054e-04       6.672328790503e+02 
       2.242517329970e-04       8.302211537746e+02 
       2.823162053088e-04       1.032896859352e+03 
       3.554150450246e-04       1.284807442796e+03 
       4.474410319154e-04       1.597696327826e+03 
       5.632948853578e-04       1.985930418163e+03 
       7.091462455106e-04       2.466961884873e+03 
       8.927622291517e-04       3.061796693717e+03 
       1.123921056969e-03       3.795399299220e+03 
       1.414932779469e-03       4.696870193735e+03 
       1.781294832054e-03       5.799110920130e+03 
       2.242517329970e-03       7.137859231912e+03 
       2.823162053088e-03       8.749314765998e+03 
       3.554150450246e-03       1.066585746949e+04 
       4.474410319154e-03       1.283607693995e+04 
       5.632948853578e-03       1.536931760520e+04 
       7.091462455106e-03       1.817557492469e+04 
       8.927622291517e-03       2.115295099187e+04 
       1.123921056969e-02       2.411297513135e+04 
       1.414932779469e-02       2.675490367350e+04 
       1.781294831988e-02       2.865930235059e+04 
       2.242517138587e-02       2.934404422163e+04 
       2.823083221098e-02       2.845069463694e+04 
       3.547538046896e-02       2.610897334891e+04 
       4.337273091147e-02       2.349562995486e+04 
       4.931958638819e-02       2.196563452238e+04 
       5.382148242865e-02       2.109278918612e+04 
       5.765694216322e-02       2.050233725185e+04 
       6.114158719585e-02       2.004476609504e+04 
       6.442517045369e-02       1.964498370667e+04 
       6.759073703294e-02       1.925809044403e+04 
       7.068978066864e-02       1.885497163204e+04 
       7.375699827245e-02       1.841702233656e+04 
       7.681734548916e-02       1.793414210514e+04 
       7.988975811952e-02       1.740390753340e+04 
       8.298926864322e-02       1.683099547023e+04 
       8.612828374812e-02       1.622638839786e+04 
       8.931739331990e-02       1.560614098462e+04 
       9.256590323513e-02       1.498966812187e+04 
       9.588219780737e-02       1.439765556768e+04 
       9.927399303922e-02       1.384978625424e+04 
       1.027485175005e-01       1.336249883789e+04 
       1.063126438082e-01       1.294696527585e+04 
       1.099729855068e-01       1.260741603304e+04 
       1.137359691544e-01       1.233991416073e+04 
       1.176078882990e-01       1.213173440390e+04 
       1.215949440202e-01       1.196164696241e+04 
       1.257032754058e-01       1.180158237634e+04 
       1.299389824725e-01       1.162015419359e+04 
       1.343081434606e-01       1.138816473069e+04 
       1.388168280543e-01       1.108537019514e+04 
       1.434711078238e-01       1.070670651892e+04 
       1.482770650196e-01       1.026552236063e+04 
       1.532408007419e-01       9.791860762572e+03 
       1.583684434419e-01       9.325576773634e+03 
       1.636661586660e-01       8.906191800821e+03 
       1.691401609317e-01       8.562528194488e+03 
       1.747967286037e-01       8.304790245493e+03 
       1.806422226286e-01       8.120697072741e+03 
       1.866831099790e-01       7.976862082891e+03 
       1.929259926554e-01       7.826884604401e+03 
       1.993776431011e-01       7.626568641075e+03 
       2.060450469021e-01       7.352369261726e+03 
       2.129354536865e-01       7.013759296227e+03 
       2.200564372059e-01       6.650282560714e+03 
       2.274159656937e-01       6.312876519928e+03 
       2.350224837645e-01       6.039586851297e+03 
       2.428850073597e-01       5.838187215032e+03 
       2.510132335858e-01       5.682955793694e+03 
       2.594176677513e-01       5.527658725144e+03 
       2.681097705279e-01       5.331777235648e+03 
       2.771021289876e-01       5.086667731051e+03 
       2.864086563526e-01       4.821004032367e+03 
       2.960448267394e-01       4.578144064803e+03 
       3.060279530865e-01       4.383454265786e+03 
       3.163775190096e-01       4.227242739820e+03 
       3.271155787617e-01       4.075127442630e+03 
       3.382672441558e-01       3.898892493848e+03 
       3.498612837541e-01       3.702089511042e+03 
       3.619308686345e-01       3.513071096184e+03 
       3.745145118193e-01       3.352330122093e+03 
       3.876572668600e-01       3.211609072404e+03 
       4.014122780781e-01       3.067589089546e+03 
       4.158428153279e-01       2.912879517489e+03 
       4.310249877771e-01       2.762878313758e+03 
       4.470514274370e-01       2.629138885300e+03 
       4.640363873301e-01       2.502538025205e+03 
       4.821229531297e-01       2.372670287093e+03 
       5.014934987854e-01       2.245937800889e+03 
       5.223852768457e-01       2.127951367240e+03 
       5.451144273467e-01       2.011814725226e+03 
       5.701143605158e-01       1.896840876679e+03 
       5.979998614502e-01       1.785943346312e+03 
       6.296798066538e-01       1.675187636052e+03 
       6.665677508207e-01       1.564712907374e+03 
       7.110042335270e-01       1.451691413334e+03 
       7.671731144099e-01       1.332982455319e+03 
       8.432373712439e-01       1.202260502496e+03 
       9.562662188401e-01       1.048417030943e+03 
       1.138703891415e+00       8.571311199884e+02 
       1.417399687255e+00       6.414817646245e+02 
       1.783543073093e+00       4.497586767106e+02 
       2.245338037818e+00       3.015590344722e+02 
       2.826713094491e+00       1.957101937484e+02 
       3.558620946502e+00       1.241212281948e+02 
       4.480038340494e+00       7.747734933627e+01 
       5.640034112660e+00       4.784145214063e+01 
       7.100382267814e+00       2.932582203833e+01 
       8.938851670403e+00       1.788691465171e+01 
       1.125334752013e+01       1.087291394783e+01 
