# Matter power spectrum P(k) at redshift z=1.5
# for k=1.95156e-07 to 12.3288 h/Mpc,
# number of wavenumbers equal to 140
#    1:k (h/Mpc)              2:P (Mpc/h)^3        
       1.951560737766e-07       3.668309711291e-01 
       2.456869405434e-07       4.586865390284e-01 
       3.093015327960e-07       5.735430145248e-01 
       3.893875595438e-07       7.171598931602e-01 
       4.902098937462e-07       8.967388649077e-01 
       6.171376923500e-07       1.121284943805e+00 
       7.769303234755e-07       1.402058025002e+00 
       9.780973274167e-07       1.753137512567e+00 
       1.231351580693e-06       2.192128330389e+00 
       1.550179795787e-06       2.741043718415e+00 
       1.951560737766e-06       3.427409078832e+00 
       2.456869405434e-06       4.285642218920e+00 
       3.093015327960e-06       5.358779193411e+00 
       3.893875595438e-06       6.700632268256e+00 
       4.902098937462e-06       8.378488169820e+00 
       6.171376923500e-06       1.047648184693e+01 
       7.769303234755e-06       1.309981475188e+01 
       9.780973274167e-06       1.638002883549e+01 
       1.231351580693e-05       2.048160007535e+01 
       1.550179795787e-05       2.561018085660e+01 
       1.951560737766e-05       3.202290197501e+01 
       2.456869405434e-05       4.004124574694e+01 
       3.093015327960e-05       5.006712567876e+01 
       3.893875595438e-05       6.260295907174e+01 
       4.902098937462e-05       7.827669961068e+01 
       6.171376923500e-05       9.787300732293e+01 
       7.769303234755e-05       1.223719649768e+02 
       9.780973274167e-05       1.529969801265e+02 
       1.231351580693e-04       1.912736824387e+02 
       1.550179795787e-04       2.391016184260e+02 
       1.951560737766e-04       2.988401249714e+02 
       2.456869405434e-04       3.734085082386e+02 
       3.093015327960e-04       4.663978849103e+02 
       3.893875595438e-04       5.821868761014e+02 
       4.902098937462e-04       7.260452068486e+02 
       6.171376923500e-04       9.041993611445e+02 
       7.769303234755e-04       1.123827557799e+03 
       9.780973274167e-04       1.392951092325e+03 
       1.231351580693e-03       1.720170819326e+03 
       1.550179795787e-03       2.114088921592e+03 
       1.951560737766e-03       2.582130784566e+03 
       2.456869405434e-03       3.128718261077e+03 
       3.093015327960e-03       3.752877111851e+03 
       3.893875595438e-03       4.445218778513e+03 
       4.902098937462e-03       5.184165601373e+03 
       6.171376923500e-03       5.928302356386e+03 
       7.769303234755e-03       6.626196488909e+03 
       9.780973274167e-03       7.195272716635e+03 
       1.231351580693e-02       7.533119737326e+03 
       1.550179795787e-02       7.522951629832e+03 
       1.951560734791e-02       7.061598241735e+03 
       2.456865962277e-02       6.123921108133e+03 
       3.092344992525e-02       4.858694335515e+03 
       3.863779297315e-02       3.654046244185e+03 
       4.576329915953e-02       2.977178718915e+03 
       5.086241444486e-02       2.696290035463e+03 
       5.496269737661e-02       2.548129597544e+03 
       5.857525312793e-02       2.448207252199e+03 
       6.191893183185e-02       2.364343267753e+03 
       6.510575327005e-02       2.281202617430e+03 
       6.820130013385e-02       2.190933321469e+03 
       7.124788912472e-02       2.090012946879e+03 
       7.427492675487e-02       1.977916766707e+03 
       7.730409996773e-02       1.856358518560e+03 
       8.035221403215e-02       1.728681601667e+03 
       8.343285267747e-02       1.599258553819e+03 
       8.655740304860e-02       1.472877848181e+03 
       8.973571683065e-02       1.354154318718e+03 
       9.297655232732e-02       1.247020822198e+03 
       9.628787899968e-02       1.154350374342e+03 
       9.967709246698e-02       1.077729290044e+03 
       1.031511693532e-01       1.017367072601e+03 
       1.067167805826e-01       9.721053714465e+02 
       1.103803752634e-01       9.394928197022e+02 
       1.141482433054e-01       9.159293064564e+02 
       1.180265623867e-01       8.969328962119e+02 
       1.220214332520e-01       8.776090914727e+02 
       1.261389062499e-01       8.533650265446e+02 
       1.303850013067e-01       8.207964710743e+02 
       1.347657230589e-01       7.785239203601e+02 
       1.392870725541e-01       7.276554673630e+02 
       1.439550567188e-01       6.716082215297e+02 
       1.487756966579e-01       6.152472810862e+02 
       1.537550357646e-01       5.635992192698e+02 
       1.588991485642e-01       5.205779608831e+02 
       1.642141511808e-01       4.880989832945e+02 
       1.697062142959e-01       4.657242009864e+02 
       1.753815794529e-01       4.507991939177e+02 
       1.812465795523e-01       4.390654823276e+02 
       1.873076643775e-01       4.258110006209e+02 
       1.935714319904e-01       4.074519336069e+02 
       2.000446668491e-01       3.829734587442e+02 
       2.067343855256e-01       3.543644233914e+02 
       2.136478909524e-01       3.255998064115e+02 
       2.207928362136e-01       3.006795503927e+02 
       2.281772990299e-01       2.818293651086e+02 
       2.358098682830e-01       2.686889636131e+02 
       2.436997442055e-01       2.586756848821e+02 
       2.518568542466e-01       2.483602853547e+02 
       2.602919871461e-01       2.353730970683e+02 
       2.690169484438e-01       2.197679711064e+02 
       2.780447415765e-01       2.037421298407e+02 
       2.873897799319e-01       1.898505335208e+02 
       2.970681368442e-01       1.791642606273e+02 
       3.070978426650e-01       1.707108550853e+02 
       3.174992409171e-01       1.624619404767e+02 
       3.282954194364e-01       1.530947201003e+02 
       3.395127377298e-01       1.430286293379e+02 
       3.511814791653e-01       1.337106966905e+02 
       3.633366669982e-01       1.259688881803e+02 
       3.760190980653e-01       1.192525840148e+02 
       3.892766695276e-01       1.124822984069e+02 
       4.031661058995e-01       1.053998976158e+02 
       4.177552416704e-01       9.867811034887e+01 
       4.331260889249e-01       9.274976928668e+01 
       4.493790363731e-01       8.720989336971e+01 
       4.666387158942e-01       8.163469386014e+01 
       4.850623894604e-01       7.625236585989e+01 
       5.048522560241e-01       7.127763914324e+01 
       5.262740573815e-01       6.645263160859e+01 
       5.496861922369e-01       6.170991095646e+01 
       5.755871356081e-01       5.716883562344e+01 
       6.046963882978e-01       5.268929378845e+01 
       6.381005338609e-01       4.825999466791e+01 
       6.775345113496e-01       4.381379549559e+01 
       7.259654880751e-01       3.927045450169e+01 
       7.889046318319e-01       3.450587914133e+01 
       8.775119592198e-01       2.935784369649e+01 
       1.015036366073e+00       2.370555597402e+01 
       1.237148160076e+00       1.793997574374e+01 
       1.552216937620e+00       1.320962160836e+01 
       1.953985925319e+00       9.767953366410e+00 
       2.459921778042e+00       7.234161626752e+00 
       3.096858036774e+00       5.327198405397e+00 
       3.898713279213e+00       3.873944070422e+00 
       4.908189220501e+00       2.765592289290e+00 
       6.179044135583e+00       1.929453182408e+00 
       7.778955682883e+00       1.311625373571e+00 
       9.793124986402e+00       8.675569345589e-01 
       1.232881390626e+01       5.583453940205e-01 
