# Matter power spectrum P(k) at redshift z=2.5
# for k=1.80584e-07 to 11.4076 h/Mpc,
# number of wavenumbers equal to 140
#    1:k (h/Mpc)              2:P (Mpc/h)^3        
       1.805841532355e-07       2.922727420373e-01 
       2.273419794755e-07       3.646013846425e-01 
       2.862065951294e-07       4.548291733064e-01 
       3.603127556314e-07       5.673856039083e-01 
       4.536068842580e-07       7.077963379807e-01 
       5.710572335572e-07       8.829544705193e-01 
       7.189184629140e-07       1.101458927710e+00 
       9.050647219704e-07       1.374036607344e+00 
       1.139408977807e-06       1.714068987176e+00 
       1.434430916588e-06       2.138249049373e+00 
       1.805841532355e-06       2.667400771147e+00 
       2.273419794755e-06       3.327501410860e+00 
       2.862065951294e-06       4.150956765818e+00 
       3.603127556314e-06       5.178192001222e+00 
       4.536068842580e-06       6.459636109317e+00 
       5.710572335572e-06       8.058197392328e+00 
       7.189184629140e-06       1.005235137255e+01 
       9.050647219704e-06       1.253999256010e+01 
       1.139408977807e-05       1.564323875323e+01 
       1.434430916588e-05       1.951442300247e+01 
       1.805841532355e-05       2.434356588886e+01 
       2.273419794755e-05       3.036769200226e+01 
       2.862065951294e-05       3.788244215813e+01 
       3.603127556314e-05       4.725653989727e+01 
       4.536068842580e-05       5.894979979704e+01 
       5.710572335572e-05       7.353551668167e+01 
       7.189184629140e-05       9.172824675108e+01 
       9.050647219704e-05       1.144181706574e+02 
       1.139408977807e-04       1.427133855036e+02 
       1.434430916588e-04       1.779915392134e+02 
       1.805841532355e-04       2.219620620008e+02 
       2.273419794755e-04       2.767396107075e+02 
       2.862065951294e-04       3.449277854848e+02 
       3.603127556314e-04       4.297090509554e+02 
       4.536068842580e-04       5.349313961433e+02 
       5.710572335572e-04       6.651745848871e+02 
       7.189184629140e-04       8.257711553249e+02 
       9.050647219704e-04       1.022754731109e+03 
       1.139408977807e-03       1.262708432028e+03 
       1.434430916588e-03       1.552448967801e+03 
       1.805841532355e-03       1.898358580973e+03 
       2.273419794755e-03       2.305174159255e+03 
       2.862065951294e-03       2.774348650391e+03 
       3.603127556314e-03       3.301886788099e+03 
       4.536068842580e-03       3.875555081893e+03 
       5.710572335572e-03       4.471818366390e+03 
       7.189184629140e-03       5.052798930836e+03 
       9.050647219704e-03       5.563953600357e+03 
       1.139408977807e-02       5.934082879201e+03 
       1.434430916556e-02       6.081477927819e+03 
       1.805841427947e-02       5.933631574984e+03 
       2.273372167195e-02       5.468668027064e+03 
       2.857723069396e-02       4.773593225742e+03 
       3.505347999889e-02       4.108961934297e+03 
       4.000652775529e-02       3.723331476043e+03 
       4.372556837030e-02       3.490212130733e+03 
       4.687787793599e-02       3.316744770223e+03 
       4.973394733354e-02       3.169798397170e+03 
       5.242076900862e-02       3.034911049528e+03 
       5.500822792408e-02       2.904958219286e+03 
       5.753941742065e-02       2.776459467535e+03 
       6.004325095452e-02       2.648080252472e+03 
       6.254045349466e-02       2.519882837130e+03 
       6.504670595493e-02       2.392860350743e+03 
       6.757442662969e-02       2.268583025095e+03 
       7.013384313832e-02       2.148890338203e+03 
       7.273366952144e-02       2.035612424754e+03 
       7.538155124688e-02       1.930322535175e+03 
       7.808436741788e-02       1.834128696180e+03 
       8.084844163695e-02       1.747518038880e+03 
       8.367969243658e-02       1.670263773855e+03 
       8.658374252797e-02       1.601406170078e+03 
       8.956599924496e-02       1.539317136021e+03 
       9.263171437325e-02       1.481858387619e+03 
       9.578602893603e-02       1.426637063450e+03 
       9.903400682889e-02       1.371344415646e+03 
       1.023806601049e-01       1.314138278826e+03 
       1.058309679888e-01       1.253996455068e+03 
       1.093898912188e-01       1.190947070088e+03 
       1.130623829976e-01       1.126089219971e+03 
       1.168533976182e-01       1.061360075525e+03 
       1.207678976947e-01       9.990803199007e+02 
       1.248108608370e-01       9.413809812595e+02 
       1.289872865513e-01       8.896608927733e+02 
       1.333022041136e-01       8.442195164087e+02 
       1.377606821399e-01       8.041719077726e+02 
       1.423678405651e-01       7.676923842880e+02 
       1.471288657291e-01       7.325601002423e+02 
       1.520490292667e-01       6.968771142552e+02 
       1.571337114921e-01       6.597205976751e+02 
       1.623884299760e-01       6.214458197770e+02 
       1.678188740259e-01       5.834624005567e+02 
       1.734309458124e-01       5.475509128157e+02 
       1.792308089399e-01       5.150328173792e+02 
       1.852249453489e-01       4.861907932538e+02 
       1.914202215710e-01       4.602137629288e+02 
       1.978239655529e-01       4.356915238109e+02 
       2.044440555359e-01       4.114053548223e+02 
       2.112890228494e-01       3.869686148214e+02 
       2.183681709713e-01       3.629160218640e+02 
       2.256917138721e-01       3.401904455310e+02 
       2.332709375322e-01       3.194112500908e+02 
       2.411183896805e-01       3.004629778208e+02 
       2.492481043339e-01       2.826807799972e+02 
       2.576758697656e-01       2.654373914508e+02 
       2.664195512878e-01       2.486124116002e+02 
       2.754994839782e-01       2.325422452605e+02 
       2.849389556468e-01       2.175568621340e+02 
       2.947648075426e-01       2.036146562362e+02 
       3.050081905115e-01       1.903978931824e+02 
       3.157055290175e-01       1.776904050069e+02 
       3.268997669808e-01       1.655501339008e+02 
       3.386420015533e-01       1.541008215505e+02 
       3.509936599927e-01       1.432942138454e+02 
       3.640294512766e-01       1.329827165450e+02 
       3.778414464176e-01       1.231194803238e+02 
       3.925448425890e-01       1.137321639529e+02 
       4.082863074636e-01       1.047778441225e+02 
       4.252563998647e-01       9.618077011712e+01 
       4.437086591901e-01       8.791552299980e+01 
       4.639900524730e-01       7.994141061014e+01 
       4.865916867458e-01       7.219556595306e+01 
       5.122376910397e-01       6.462408879799e+01 
       5.420506453260e-01       5.714913837999e+01 
       5.778818815552e-01       4.967615298995e+01 
       6.230248664128e-01       4.207567825516e+01 
       6.838726347611e-01       3.418197430441e+01 
       7.737665270076e-01       2.586684893063e+01 
       9.184898203905e-01       1.746415853415e+01 
       1.141454500101e+00       1.051887467318e+01 
       1.436140544986e+00       6.094880736011e+00 
       1.807983145102e+00       3.493868333260e+00 
       2.276115901555e+00       1.986089722648e+00 
       2.865460148649e+00       1.120460231222e+00 
       3.607400597618e+00       6.277781101584e-01 
       4.541448282863e+00       3.495406971751e-01 
       5.717344649645e+00       1.935125874720e-01 
       7.197710467424e+00       1.065738523407e-01 
       9.061380614176e+00       5.841268295832e-02 
       1.140760232113e+01       3.187435420990e-02 
