# Matter power spectrum P(k) at redshift z=1
# for k=1.71564e-07 to 10.838 h/Mpc,
# number of wavenumbers equal to 140
#    1:k (h/Mpc)              2:P (Mpc/h)^3        
       1.715641364843e-07       5.341603959820e-01 
       2.159864511726e-07       6.706897740059e-01 
       2.719108319844e-07       8.421155443972e-01 
       3.423154561273e-07       1.057357092770e+00 
       4.309496265686e-07       1.327613564966e+00 
       5.425334360904e-07       1.666946565207e+00 
       6.830091294422e-07       2.093011787953e+00 
       8.598575495422e-07       2.627977651514e+00 
       1.082496519642e-06       3.299678727873e+00 
       1.362782376756e-06       4.143063982132e+00 
       1.715641364843e-06       5.202015162358e+00 
       2.159864511726e-06       6.531629947600e+00 
       2.719108319844e-06       8.201088620922e+00 
       3.423154561273e-06       1.029725337627e+01 
       4.309496265686e-06       1.292918744135e+01 
       5.425334360904e-06       1.623382896961e+01 
       6.830091294422e-06       2.038311456270e+01 
       8.598575495422e-06       2.559292232360e+01 
       1.082496519642e-05       3.213429835845e+01 
       1.362782376756e-05       4.034754797939e+01 
       1.715641364843e-05       5.065991913315e+01 
       2.159864511726e-05       6.360778690229e+01 
       2.719108319844e-05       7.986447097953e+01 
       3.423154561273e-05       1.002750890707e+02 
       4.309496265686e-05       1.259001714423e+02 
       5.425334360904e-05       1.580701311831e+02 
       6.830091294422e-05       1.984530783634e+02 
       8.598575495422e-05       2.491388250347e+02 
       1.082496519642e-04       3.127421160841e+02 
       1.362782376756e-04       3.925278622199e+02 
       1.715641364843e-04       4.925599224391e+02 
       2.159864511726e-04       6.178718783353e+02 
       2.719108319844e-04       7.746519131574e+02 
       3.423154561273e-04       9.704229243041e+02 
       4.309496265686e-04       1.214183386918e+03 
       5.425334360904e-04       1.516458918082e+03 
       6.830091294422e-04       1.889208466674e+03 
       8.598575495422e-04       2.345523905646e+03 
       1.082496519642e-03       2.898974232758e+03 
       1.362782376756e-03       3.562215388858e+03 
       1.715641364843e-03       4.344557469198e+03 
       2.159864511726e-03       5.248663466484e+03 
       2.719108319844e-03       6.266293699422e+03 
       3.423154561273e-03       7.373520228423e+03 
       4.309496265686e-03       8.525708899335e+03 
       5.425334360904e-03       9.646062524941e+03 
       6.830091294422e-03       1.065217478239e+04 
       8.598575495422e-03       1.141952520434e+04 
       1.082496519642e-02       1.181231278276e+04 
       1.362782376755e-02       1.169536633901e+04 
       1.715641361504e-02       1.097218697290e+04 
       2.159860877933e-02       9.655580615677e+03 
       2.718435383284e-02       7.956550947555e+03 
       3.394214700662e-02       6.334969067566e+03 
       4.010246725463e-02       5.350752655494e+03 
       4.451397996609e-02       4.859149908582e+03 
       4.807483620241e-02       4.538795839446e+03 
       5.121843254610e-02       4.284988721917e+03 
       5.413137573079e-02       4.059166378235e+03 
       5.690965147354e-02       3.844595228547e+03 
       5.960965190332e-02       3.634023413343e+03 
       6.226785823134e-02       3.425189748899e+03 
       6.490967353779e-02       3.218744636959e+03 
       6.755386361764e-02       3.017039489543e+03 
       7.021499067850e-02       2.823273989792e+03 
       7.290483967655e-02       2.640826905046e+03 
       7.563330024720e-02       2.472717235852e+03 
       7.840893627342e-02       2.321188555229e+03 
       8.123936712874e-02       2.187419600760e+03 
       8.413153052782e-02       2.071362072311e+03 
       8.709186822335e-02       1.971702296145e+03 
       9.012645982129e-02       1.885945872404e+03 
       9.324112073046e-02       1.810630392437e+03 
       9.644147470649e-02       1.741677208778e+03 
       9.973300801497e-02       1.674883407892e+03 
       1.031211100615e-01       1.606522089445e+03 
       1.066111039279e-01       1.533963191876e+03 
       1.102082693296e-01       1.456172889023e+03 
       1.139178598967e-01       1.373929192791e+03 
       1.177451162714e-01       1.289637470201e+03 
       1.216952762444e-01       1.206740950952e+03 
       1.257735829736e-01       1.128858719489e+03 
       1.299852922103e-01       1.058880814847e+03 
       1.343356793857e-01       9.982619830084e+02 
       1.388300473616e-01       9.466894541099e+02 
       1.434737356228e-01       9.022052345840e+02 
       1.482721316666e-01       8.617765573477e+02 
       1.532306853364e-01       8.222110180394e+02 
       1.583549268355e-01       7.811772720192e+02 
       1.636504891541e-01       7.379608920351e+02 
       1.691231356431e-01       6.935960767881e+02 
       1.747787934780e-01       6.502609550933e+02 
       1.806235937802e-01       6.102038571466e+02 
       1.866639192091e-01       5.747212582014e+02 
       1.929064599136e-01       5.436641517511e+02 
       1.993582788513e-01       5.156702343021e+02 
       2.060268876555e-01       4.889755741004e+02 
       2.129203344780e-01       4.623698999871e+02 
       2.200473055762e-01       4.357475013631e+02 
       2.274172428686e-01       4.099244344014e+02 
       2.350404803000e-01       3.858915869231e+02 
       2.429284026671e-01       3.640729504263e+02 
       2.510936316295e-01       3.441107834912e+02 
       2.595502450539e-01       3.252611501188e+02 
       2.683140377299e-01       3.070119903936e+02 
       2.774028340288e-01       2.893881643788e+02 
       2.868368665103e-01       2.727272315287e+02 
       2.966392391762e-01       2.572252963677e+02 
       3.068365005838e-01       2.427363817782e+02 
       3.174593611978e-01       2.289746525828e+02 
       3.285436024496e-01       2.158123790133e+02 
       3.401312440055e-01       2.033120205034e+02 
       3.522720638982e-01       1.915205433489e+02 
       3.650256086867e-01       1.803536394006e+02 
       3.784638963840e-01       1.697013018215e+02 
       3.926751185177e-01       1.595339261134e+02 
       4.077688158371e-01       1.498443990208e+02 
       4.238832832400e-01       1.405771966112e+02 
       4.411964451127e-01       1.316717645999e+02 
       4.599423133368e-01       1.230913010632e+02 
       4.804367701916e-01       1.147850440292e+02 
       5.031196188513e-01       1.066889605755e+02 
       5.286264816706e-01       9.873646588209e+01 
       5.579187693018e-01       9.084059294716e+01 
       5.925345209278e-01       8.288795752907e+01 
       6.351103867895e-01       7.472095245201e+01 
       6.905570821404e-01       6.611103230901e+01 
       7.688422275209e-01       5.673562031125e+01 
       8.906898361033e-01       4.633216207307e+01 
       1.087200373703e+00       3.559533170334e+01 
       1.364506702131e+00       2.663804258125e+01 
       1.717706086920e+00       1.995199852888e+01 
       2.162463296199e+00       1.490401511637e+01 
       2.722379995232e+00       1.102686722233e+01 
       3.427273356557e+00       8.030838226588e+00 
       4.314681521735e+00       5.728576412467e+00 
       5.431862211511e+00       3.987329849126e+00 
       6.838309371436e+00       2.701513963664e+00 
       8.608921441410e+00       1.779850419386e+00 
       1.083798997073e+01       1.141192125967e+00 
