# Matter power spectrum P(k) at redshift z=0
# for k=2.06008e-07 to 10.3354 h/Mpc,
# number of wavenumbers equal to 139
#    1:k (h/Mpc)              2:P (Mpc/h)^3        
       2.060078579938e-07       1.704666768654e+00 
       2.593485274577e-07       2.117724664052e+00 
       3.265004517279e-07       2.630870638943e+00 
       4.110397156425e-07       3.268357040003e+00 
       5.174683432790e-07       4.060312799699e+00 
       6.514540471530e-07       5.044167391616e+00 
       8.201320545770e-07       6.266419821603e+00 
       1.032485084534e-06       7.784836261938e+00 
       1.299821710218e-06       9.671180188911e+00 
       1.636378581796e-06       1.201460405206e+01 
       2.060078579938e-06       1.492586275747e+01 
       2.593485274577e-06       1.854254808531e+01 
       3.265004517279e-06       2.303559138630e+01 
       4.110397156425e-06       2.861734180322e+01 
       5.174683432790e-06       3.555160164324e+01 
       6.514540471530e-06       4.416609286475e+01 
       8.201320545770e-06       5.486794322461e+01 
       1.032485084534e-05       6.816292271815e+01 
       1.299821710218e-05       8.467933694317e+01 
       1.636378581796e-05       1.051977017179e+02 
       2.060078579938e-05       1.306875916880e+02 
       2.593485274577e-05       1.623533853361e+02 
       3.265004517279e-05       2.016910307665e+02 
       4.110397156425e-05       2.505584411822e+02 
       5.174683432790e-05       3.112627020212e+02 
       6.514540471530e-05       3.866679269649e+02 
       8.201320545770e-05       4.803283053802e+02 
       1.032485084534e-04       5.966515501582e+02 
       1.299821710218e-04       7.410983896984e+02 
       1.636378581796e-04       9.204235656708e+02 
       2.060078579938e-04       1.142962308683e+03 
       2.593485274577e-04       1.418962370796e+03 
       3.265004517279e-04       1.760954010802e+03 
       4.110397156425e-04       2.184137942750e+03 
       5.174683432790e-04       2.706755367789e+03 
       6.514540471530e-04       3.350387800968e+03 
       8.201320545770e-04       4.140107913781e+03 
       1.032485084534e-03       5.104309877638e+03 
       1.299821710218e-03       6.273844246282e+03 
       1.636378581796e-03       7.680019602086e+03 
       2.060078579938e-03       9.351169502528e+03 
       2.593485274577e-03       1.130715642248e+04 
       3.265004517279e-03       1.355152827631e+04 
       4.110397156425e-03       1.606138036614e+04 
       5.174683432790e-03       1.877483029022e+04 
       6.514540471530e-03       2.146133734519e+04 
       8.201320545770e-03       2.412741901782e+04 
       1.032485084534e-02       2.643969196212e+04 
       1.299821710218e-02       2.807761450358e+04 
       1.636378581789e-02       2.868214389118e+04 
       2.060078547285e-02       2.793882136311e+04 
       2.593464436190e-02       2.574688924833e+04 
       3.262505981843e-02       2.245640502892e+04 
       4.037452302897e-02       1.913095858538e+04 
       4.667728640118e-02       1.709785316320e+04 
       5.129512843098e-02       1.592676084463e+04 
       5.514031008030e-02       1.508648604544e+04 
       5.859118948678e-02       1.439246209645e+04 
       6.181937372920e-02       1.376773337253e+04 
       6.491690874255e-02       1.317525706742e+04 
       6.793951435840e-02       1.259686446369e+04 
       7.092405479091e-02       1.202505350872e+04 
       7.389665929911e-02       1.145904457234e+04 
       7.687691443483e-02       1.090243021552e+04 
       7.988020889000e-02       1.036146125513e+04 
       8.291913015618e-02       9.843612754273e+03 
       8.600433946267e-02       9.356321031595e+03 
       8.914514291450e-02       8.905885414309e+03 
       9.234987718469e-02       8.496571993022e+03 
       9.562617738377e-02       8.129961779954e+03 
       9.898116743785e-02       7.804583292892e+03 
       1.024215979349e-01       7.515864325057e+03 
       1.059539473958e-01       7.256440421351e+03 
       1.095844974751e-01       7.016857392880e+03 
       1.133193891994e-01       6.786682694156e+03 
       1.171646651870e-01       6.555973074902e+03 
       1.211263013845e-01       6.316924168377e+03 
       1.252102309288e-01       6.065380903651e+03 
       1.294223621282e-01       5.801785989421e+03 
       1.337685921453e-01       5.531178482162e+03 
       1.382548176913e-01       5.262071025786e+03 
       1.428869438641e-01       5.004383471605e+03 
       1.476708921447e-01       4.766941662983e+03 
       1.526126084936e-01       4.555211605151e+03 
       1.577180724423e-01       4.369875332793e+03 
       1.629933080472e-01       4.206644639520e+03 
       1.684443975532e-01       4.057452830863e+03 
       1.740774986037e-01       3.912865314694e+03 
       1.798988658238e-01       3.765135369759e+03 
       1.859148776027e-01       3.610864422796e+03 
       1.921320689010e-01       3.452060872375e+03 
       1.985571709269e-01       3.294917580605e+03 
       2.051971585551e-01       3.146756483541e+03 
       2.120593064254e-01       3.012604811313e+03 
       2.191512547523e-01       2.893057622772e+03 
       2.264810860275e-01       2.784398100925e+03 
       2.340574140137e-01       2.680859710847e+03 
       2.418894867327e-01       2.577845139493e+03 
       2.499873055643e-01       2.474264127990e+03 
       2.583617631383e-01       2.372521029397e+03 
       2.670248034449e-01       2.276238469531e+03 
       2.759896085788e-01       2.187465882687e+03 
       2.852708178386e-01       2.105419868980e+03 
       2.948847866384e-01       2.027506835662e+03 
       3.048498949910e-01       1.951576920669e+03 
       3.151869184307e-01       1.877417028964e+03 
       3.259194784489e-01       1.806270071617e+03 
       3.370745953058e-01       1.739119614907e+03 
       3.486833741310e-01       1.675624855981e+03 
       3.607818666094e-01       1.614671352434e+03 
       3.734121668831e-01       1.555616730305e+03 
       3.866238241514e-01       1.498654645417e+03 
       4.004756899469e-01       1.444055177570e+03 
       4.150383719565e-01       1.391543051275e+03 
       4.303975499401e-01       1.340627318306e+03 
       4.466585424835e-01       1.291121241180e+03 
       4.639527311662e-01       1.242977537373e+03 
       4.824468160922e-01       1.195933707285e+03 
       5.023565178754e-01       1.149651674295e+03 
       5.239675042585e-01       1.103873257751e+03 
       5.476685241176e-01       1.058243636722e+03 
       5.740061239863e-01       1.012287197296e+03 
       6.037795838036e-01       9.654171103569e+02 
       6.382155218620e-01       9.167935749246e+02 
       6.793117413565e-01       8.651780195074e+02 
       7.305688966713e-01       8.086054921979e+02 
       7.986710163531e-01       7.437698805188e+02 
       8.974421909014e-01       6.650691699461e+02 
       1.054704256414e+00       5.652179060416e+02 
       1.302735624060e+00       4.476155869917e+02 
       1.638078371208e+00       3.357737699730e+02 
       2.062186080218e+00       2.415169777441e+02 
       2.596138358146e+00       1.671025524956e+02 
       3.268344551560e+00       1.118283904926e+02 
       4.114602010457e+00       7.284415734063e+01 
       5.179977030384e+00       4.645729901216e+01 
       6.521204716061e+00       2.915350860460e+01 
       8.209710332561e+00       1.807352454063e+01 
       1.033541296113e+01       1.110342193631e+01 
