# Matter power spectrum P(k) at redshift z=1.5
# for k=1.97777e-07 to 12.4916 h/Mpc,
# number of wavenumbers equal to 140
#    1:k (h/Mpc)              2:P (Mpc/h)^3        
       1.977773473820e-07       3.385059450392e-01 
       2.489869284964e-07       4.238540137338e-01 
       3.134559714887e-07       5.307210332158e-01 
       3.946176879858e-07       6.645326122936e-01 
       4.967942353488e-07       8.320823272528e-01 
       6.254268873134e-07       1.041876629694e+00 
       7.873658016582e-07       1.304566716132e+00 
       9.912348160852e-07       1.633489285283e+00 
       1.247890699025e-06       2.045343636370e+00 
       1.571001312144e-06       2.561039483595e+00 
       1.977773473820e-06       3.206758528806e+00 
       2.489869284964e-06       4.015283681583e+00 
       3.134559714887e-06       5.027663405987e+00 
       3.946176879858e-06       6.295295675090e+00 
       4.967942353488e-06       7.882537300015e+00 
       6.254268873134e-06       9.869971050195e+00 
       7.873658016582e-06       1.235849630781e+01 
       9.912348160852e-06       1.547445068159e+01 
       1.247890699025e-05       1.937602212098e+01 
       1.571001312144e-05       2.426127606641e+01 
       1.977773473820e-05       3.037820324454e+01 
       2.489869284964e-05       3.803729433100e+01 
       3.134559714887e-05       4.762727222909e+01 
       3.946176879858e-05       5.963476544663e+01 
       4.967942353488e-05       7.466889122230e+01 
       6.254268873134e-05       9.349193674422e+01 
       7.873658016582e-05       1.170575782295e+02 
       9.912348160852e-05       1.465583457924e+02 
       1.247890699025e-04       1.834842878091e+02 
       1.571001312144e-04       2.296949243685e+02 
       1.977773473820e-04       2.875064282809e+02 
       2.489869284964e-04       3.597952088573e+02 
       3.134559714887e-04       4.501171552131e+02 
       3.946176879858e-04       5.628379827742e+02 
       4.967942353488e-04       7.032638046099e+02 
       6.254268873134e-04       8.777527555072e+02 
       7.873658016582e-04       1.093781203300e+03 
       9.912348160852e-04       1.359933848400e+03 
       1.247890699025e-03       1.685767102751e+03 
       1.571001312144e-03       2.081404640382e+03 
       1.977773473820e-03       2.556612012550e+03 
       2.489869284964e-03       3.119242966750e+03 
       3.134559714887e-03       3.773010487603e+03 
       3.946176879858e-03       4.514403251671e+03 
       4.967942353488e-03       5.322442392835e+03 
       6.254268873134e-03       6.175360049460e+03 
       7.873658016582e-03       7.016003753649e+03 
       9.912348160852e-03       7.764573515869e+03 
       1.247890699025e-02       8.312025780774e+03 
       1.571001312138e-02       8.526368153085e+03 
       1.977773444280e-02       8.281190348090e+03 
       2.489850142995e-02       7.524460511868e+03 
       3.132235808404e-02       6.384361434206e+03 
       3.877545931076e-02       5.271773967528e+03 
       4.485598268735e-02       4.647552616185e+03 
       4.930660467026e-02       4.326191886045e+03 
       5.300942122541e-02       4.115827948314e+03 
       5.633104643666e-02       3.950926407887e+03 
       5.943750241645e-02       3.803661621350e+03 
       6.241773429249e-02       3.660075063175e+03 
       6.532553920465e-02       3.512904976558e+03 
       6.819648651945e-02       3.358898731245e+03 
       7.105577485955e-02       3.197572569186e+03 
       7.392228519608e-02       3.030475232287e+03 
       7.681084653876e-02       2.860612894213e+03 
       7.973358482103e-02       2.691910052454e+03 
       8.270076759249e-02       2.528673948383e+03 
       8.572135524307e-02       2.375076662855e+03 
       8.880337315248e-02       2.234686315479e+03 
       9.195417009961e-02       2.110081255151e+03 
       9.518060188555e-02       2.002570886529e+03 
       9.848916427066e-02       1.912033310145e+03 
       1.018860906288e-01       1.836874097351e+03 
       1.053774244570e-01       1.774116787432e+03 
       1.089690735988e-01       1.719648732386e+03 
       1.126668509506e-01       1.668656564263e+03 
       1.164765050604e-01       1.616266348625e+03 
       1.204037431342e-01       1.558344636524e+03 
       1.244542483719e-01       1.492322537805e+03 
       1.286336931568e-01       1.417821199025e+03 
       1.329477493620e-01       1.336837952399e+03 
       1.374020968616e-01       1.253346013911e+03 
       1.420024312256e-01       1.172348698901e+03 
       1.467544715027e-01       1.098631716863e+03 
       1.516639689548e-01       1.035564150252e+03 
       1.567367175740e-01       9.842621260575e+02 
       1.619785672010e-01       9.433044394801e+02 
       1.673954400475e-01       9.090802491483e+02 
       1.729933514184e-01       8.767785929722e+02 
       1.787784354287e-01       8.418907397337e+02 
       1.847569765085e-01       8.018102426439e+02 
       1.909354475085e-01       7.568367799242e+02 
       1.973205552468e-01       7.099700318657e+02 
       2.039192943946e-01       6.654624811876e+02 
       2.107390106958e-01       6.268256853314e+02 
       2.177874746536e-01       5.952781797625e+02 
       2.250729670273e-01       5.693332581121e+02 
       2.326043777745e-01       5.456916024749e+02 
       2.403913204727e-01       5.210715810374e+02 
       2.484442647915e-01       4.940544586379e+02 
       2.567746903066e-01       4.657566864267e+02 
       2.653952658915e-01       4.387819908909e+02 
       2.743200601809e-01       4.152205179812e+02 
       2.835647902584e-01       3.952093634959e+02 
       2.931471179398e-01       3.770700338424e+02 
       3.030870059962e-01       3.588408501517e+02 
       3.134071507046e-01       3.399194911356e+02 
       3.241335126587e-01       3.213277711806e+02 
       3.352959755041e-01       3.043918251792e+02 
       3.469291731708e-01       2.893015363879e+02 
       3.590735418432e-01       2.750875937571e+02 
       3.717766757784e-01       2.609059214934e+02 
       3.850951001074e-01       2.469691222658e+02 
       3.990966254090e-01       2.339514375538e+02 
       4.138635290400e-01       2.218719302018e+02 
       4.294969358046e-01       2.101768837057e+02 
       4.461229792091e-01       1.987097705608e+02 
       4.639016763398e-01       1.877659444567e+02 
       4.830400631722e-01       1.773002916288e+02 
       5.038122501769e-01       1.670391510622e+02 
       5.265911670133e-01       1.570240105322e+02 
       5.519009650704e-01       1.472148828526e+02 
       5.805078980573e-01       1.374414109998e+02 
       6.135873814460e-01       1.276356245125e+02 
       6.530527801193e-01       1.175976691307e+02 
       7.022545672558e-01       1.070900452889e+02 
       7.675853040088e-01       9.572558741896e+01 
       8.622599661490e-01       8.295705951363e+01 
       1.012911992373e+00       6.838399800651e+01 
       1.250731094232e+00       5.333803711831e+01 
       1.572630531497e+00       4.066995833033e+01 
       1.979792082858e+00       3.067618358403e+01 
       2.492410459397e+00       2.275582158994e+01 
       3.137758863911e+00       1.650505057341e+01 
       3.950204369860e+00       1.165326496256e+01 
       4.973012662997e+00       7.985406387351e+00 
       6.260652014621e+00       5.305603206947e+00 
       7.881693915607e+00       3.423112247339e+00 
       9.922464758341e+00       2.152195498713e+00 
       1.249164303191e+01       1.324256050669e+00 
