# Matter power spectrum P(k) at redshift z=1
# for k=1.61401e-07 to 10.1956 h/Mpc,
# number of wavenumbers equal to 140
#    1:k (h/Mpc)              2:P (Mpc/h)^3        
       1.614014321691e-07       9.750090973061e-01 
       2.031923644577e-07       1.220165292137e+00 
       2.558040310983e-07       1.526963535848e+00 
       3.220381951890e-07       1.910903098146e+00 
       4.054220674918e-07       2.391380381400e+00 
       5.103961432675e-07       2.992668814372e+00 
       6.425506748412e-07       3.745145127828e+00 
       8.089233729231e-07       4.686823961544e+00 
       1.018374190367e-06       5.865278326672e+00 
       1.282057146969e-06       7.340042936482e+00 
       1.614014321691e-06       9.185621802718e+00 
       2.031923644577e-06       1.149525201439e+01 
       2.558040310983e-06       1.438561378102e+01 
       3.220381951890e-06       1.800272456686e+01 
       4.054220674918e-06       2.252931485644e+01 
       5.103961432675e-06       2.819405770503e+01 
       6.425506748412e-06       3.528311742057e+01 
       8.089233729231e-06       4.415459897804e+01 
       1.018374190367e-05       5.525662453289e+01 
       1.282057146969e-05       6.914994303796e+01 
       1.614014321691e-05       8.653620096128e+01 
       2.031923644577e-05       1.082932740503e+02 
       2.558040310983e-05       1.355193891467e+02 
       3.220381951890e-05       1.695881542282e+02 
       4.054220674918e-05       2.122170575938e+02 
       5.103961432675e-05       2.655524638366e+02 
       6.425506748412e-05       3.322745479530e+02 
       8.089233729231e-05       4.157257958137e+02 
       1.018374190367e-04       5.200663015830e+02 
       1.282057146969e-04       6.504574149008e+02 
       1.614014321691e-04       8.132710705247e+02 
       2.031923644577e-04       1.016313294757e+03 
       2.558040310983e-04       1.269034091167e+03 
       3.220381951890e-04       1.582669933910e+03 
       4.054220674918e-04       1.970232490651e+03 
       5.103961432675e-04       2.446235024137e+03 
       6.425506748412e-04       3.026066004954e+03 
       8.089233729231e-04       3.724954487106e+03 
       1.018374190367e-03       4.556303525189e+03 
       1.282057146969e-03       5.528685669143e+03 
       1.614014321691e-03       6.641206092634e+03 
       2.031923644577e-03       7.878259678617e+03 
       2.558040310983e-03       9.204084236178e+03 
       3.220381951890e-03       1.055864499531e+04 
       4.054220674918e-03       1.185523041813e+04 
       5.103961432675e-03       1.298296543289e+04 
       6.425506748412e-03       1.381281116338e+04 
       8.089233729231e-03       1.421544172607e+04 
       1.018374190367e-02       1.406510099218e+04 
       1.282057146969e-02       1.326625843821e+04 
       1.614014321660e-02       1.178537367671e+04 
       2.031923538855e-02       9.712326185824e+03 
       2.557990736781e-02       7.340870990640e+03 
       3.215758644383e-02       5.184781526574e+03 
       3.947821473438e-02       3.820034330550e+03 
       4.510219928157e-02       3.273924001155e+03 
       4.931587250745e-02       3.017804916084e+03 
       5.288242331548e-02       2.845373980758e+03 
       5.611136150125e-02       2.696395080521e+03 
       5.914758501010e-02       2.548656776147e+03 
       6.207066648113e-02       2.394003342535e+03 
       6.492959917388e-02       2.231124787984e+03 
       6.775721733175e-02       2.062558461643e+03 
       7.057703462133e-02       1.892976491779e+03 
       7.340682827903e-02       1.727946688292e+03 
       7.626066753161e-02       1.572954011301e+03 
       7.915013313811e-02       1.432656774999e+03 
       8.208508719280e-02       1.310394758092e+03 
       8.507417877760e-02       1.207945665556e+03 
       8.812518719727e-02       1.125486534507e+03 
       9.124526137808e-02       1.061689908005e+03 
       9.444109060252e-02       1.013888061384e+03 
       9.771902847312e-02       9.782775509018e+02 
       1.010851841747e-01       9.501935810963e+02 
       1.045454903410e-01       9.245270361878e+02 
       1.081057538532e-01       8.963467211196e+02 
       1.117716939889e-01       8.617028298670e+02 
       1.155489711014e-01       8.184452228276e+02 
       1.194432081847e-01       7.667682680952e+02 
       1.234600071397e-01       7.091975095138e+02 
       1.276049611887e-01       6.499157723167e+02 
       1.318836646485e-01       5.936150738135e+02 
       1.363017211127e-01       5.442733645270e+02 
       1.408647509914e-01       5.042468332600e+02 
       1.455783992929e-01       4.738649159456e+02 
       1.504483444907e-01       4.515041944224e+02 
       1.554803092952e-01       4.340554522355e+02 
       1.606800741310e-01       4.177514961610e+02 
       1.660534941123e-01       3.992920273834e+02 
       1.716065203006e-01       3.769682251627e+02 
       1.773452260258e-01       3.512441476886e+02 
       1.832758390583e-01       3.243753330492e+02 
       1.894047804346e-01       2.992081085811e+02 
       1.957387107739e-01       2.778331668431e+02 
       2.022845849867e-01       2.607743576658e+02 
       2.090497163744e-01       2.469847618802e+02 
       2.160418512707e-01       2.345428696101e+02 
       2.232692555945e-01       2.217173399574e+02 
       2.307408149869e-01       2.078651593800e+02 
       2.384661506229e-01       1.936022589259e+02 
       2.464557533460e-01       1.801406721614e+02 
       2.547211395178e-01       1.683378525399e+02 
       2.632750329584e-01       1.581731518720e+02 
       2.721315786525e-01       1.489444068677e+02 
       2.813065956228e-01       1.399272288058e+02 
       2.908178786704e-01       1.309249818367e+02 
       3.006855617826e-01       1.222604950150e+02 
       3.109325602174e-01       1.143063281048e+02 
       3.215851140758e-01       1.070893069918e+02 
       3.326734642679e-01       1.003428879333e+02 
       3.442327032414e-01       9.385100525272e+01 
       3.563038593505e-01       8.763842002173e+01 
       3.689352979169e-01       8.182216125754e+01 
       3.821845581294e-01       7.639794978780e+01 
       3.961207999307e-01       7.126095722669e+01 
       4.108281207988e-01       6.636134768191e+01 
       4.264101394145e-01       6.172056190939e+01 
       4.429964685519e-01       5.732955686215e+01 
       4.607520816643e-01       5.314280944735e+01 
       4.798912487251e-01       4.913994884710e+01 
       5.006989429498e-01       4.530794689903e+01 
       5.235649627138e-01       4.161601134742e+01 
       5.490407234144e-01       3.803823864520e+01 
       5.779387095361e-01       3.454284045418e+01 
       6.115173900483e-01       3.109102416317e+01 
       6.518499965110e-01       2.763138924167e+01 
       7.026200183535e-01       2.409708765870e+01 
       7.709677629089e-01       2.039823803692e+01 
       8.717849492632e-01       1.644108273066e+01 
       1.033969503038e+00       1.230256858666e+01 
       1.284382673753e+00       8.647257522106e+00 
       1.615908185410e+00       6.057564593430e+00 
       2.034294805233e+00       4.295986339128e+00 
       2.561025395265e+00       3.067712225276e+00 
       3.224139950340e+00       2.189691991494e+00 
       4.058951714664e+00       1.551047315376e+00 
       5.109917458836e+00       1.083343010896e+00 
       6.433004941100e+00       7.424522594972e-01 
       8.098673394548e+00       4.977672222087e-01 
       1.019562573822e+01       3.261788814408e-01 
