# Matter power spectrum P(k) at redshift z=0.5
# for k=2.09e-07 to 10.4895 h/Mpc,
# number of wavenumbers equal to 139
#    1:k (h/Mpc)              2:P (Mpc/h)^3        
       2.090002883584e-07       3.394810273418e-01 
       2.631157740867e-07       4.263099877374e-01 
       3.312431342416e-07       5.353471651206e-01 
       4.170103991791e-07       6.722727483822e-01 
       5.249849885090e-07       8.442197463580e-01 
       6.609169428444e-07       1.060145575117e+00 
       8.320451344322e-07       1.331298685721e+00 
       1.047482763496e-06       1.671804540848e+00 
       1.318702669382e-06       2.099401465871e+00 
       1.660148301086e-06       2.636364707336e+00 
       2.090002883584e-06       3.310666834456e+00 
       2.631157740867e-06       4.157434931524e+00 
       3.312431342416e-06       5.220780485744e+00 
       4.170103991791e-06       6.556097285165e+00 
       5.249849885090e-06       8.232947008097e+00 
       6.609169428444e-06       1.033868278020e+01 
       8.320451344322e-06       1.298299936974e+01 
       1.047482763496e-05       1.630364686436e+01 
       1.318702669382e-05       2.047360511351e+01 
       1.660148301086e-05       2.571009191377e+01 
       2.090002883584e-05       3.228587273597e+01 
       2.631157740867e-05       4.054345817902e+01 
       3.312431342416e-05       5.091292285886e+01 
       4.170103991791e-05       6.393426225172e+01 
       5.249849885090e-05       8.028542884023e+01 
       6.609169428444e-05       1.008174618987e+02 
       8.320451344322e-05       1.265984494877e+02 
       1.047482763496e-04       1.589684325203e+02 
       1.318702669382e-04       1.996077572912e+02 
       1.660148301086e-04       2.506217490936e+02 
       2.090002883584e-04       3.146447970684e+02 
       2.631157740867e-04       3.949667898582e+02 
       3.312431342416e-04       4.956839737691e+02 
       4.170103991791e-04       6.218742884956e+02 
       5.249849885090e-04       7.797938063295e+02 
       6.609169428444e-04       9.770863265691e+02 
       8.320451344322e-04       1.222992277222e+03 
       1.047482763496e-03       1.528528821968e+03 
       1.318702669382e-03       1.906569427064e+03 
       1.660148301086e-03       2.371683093036e+03 
       2.090002883584e-03       2.939584858993e+03 
       2.631157740867e-03       3.625992886186e+03 
       3.312431342416e-03       4.444614459166e+03 
       4.170103991791e-03       5.388055269620e+03 
       5.249849885090e-03       6.478230045040e+03 
       6.609169428444e-03       7.685040938680e+03 
       8.320451344322e-03       8.962622047928e+03 
       1.047482763496e-02       1.022852362270e+04 
       1.318702669382e-02       1.135456321580e+04 
       1.660148300853e-02       1.216704907768e+04 
       2.090002397638e-02       1.247435950838e+04 
       2.631004181833e-02       1.214725159349e+04 
       3.302073882314e-02       1.126265821591e+04 
       3.997857390469e-02       1.030566754948e+04 
       4.505624412868e-02       9.716184237107e+03 
       4.898458424494e-02       9.325869303458e+03 
       5.237407051508e-02       9.020517141175e+03 
       5.547489633474e-02       8.753692546449e+03 
       5.840905198133e-02       8.502547341861e+03 
       6.124552709337e-02       8.254484576109e+03 
       6.402771549916e-02       8.002509059890e+03 
       6.678517941768e-02       7.743303787377e+03 
       6.953937086079e-02       7.476280301086e+03 
       7.230668837612e-02       7.202984412763e+03 
       7.510023307759e-02       6.926603575103e+03 
       7.793087712666e-02       6.651471132200e+03 
       8.080794478108e-02       6.382531977239e+03 
       8.373966334869e-02       6.124775119497e+03 
       8.673347132937e-02       5.882661824069e+03 
       8.979623451407e-02       5.659590726500e+03 
       9.293440078721e-02       5.457445904808e+03 
       9.615411291615e-02       5.276273082365e+03 
       9.946129180385e-02       5.114131255980e+03 
       1.028616985096e-01       4.967167205131e+03 
       1.063609807186e-01       4.829960318981e+03 
       1.099647076542e-01       4.696169549213e+03 
       1.136783963243e-01       4.559469482985e+03 
       1.175075312633e-01       4.414679127740e+03 
       1.214575794463e-01       4.258879219735e+03 
       1.255340017287e-01       4.092222829068e+03 
       1.297422619505e-01       3.918133581435e+03 
       1.340878347046e-01       3.742703121231e+03 
       1.385762126783e-01       3.573330442897e+03 
       1.432129144212e-01       3.416903485298e+03 
       1.480034933562e-01       3.277992102798e+03 
       1.529535488280e-01       3.157543557480e+03 
       1.580687399716e-01       3.052473702140e+03 
       1.633548031697e-01       2.956391449500e+03 
       1.688175738645e-01       2.861465142048e+03 
       1.744630134882e-01       2.761057175508e+03 
       1.802972422821e-01       2.652248389420e+03 
       1.863265787940e-01       2.537071237208e+03 
       1.925575868840e-01       2.421618761009e+03 
       1.989971311352e-01       2.313235258868e+03 
       2.056524416746e-01       2.217086030021e+03 
       2.125311895690e-01       2.133779823270e+03 
       2.196415741938e-01       2.059227295634e+03 
       2.269924242882e-01       1.986928955158e+03 
       2.345933148493e-01       1.911674947167e+03 
       2.424547025987e-01       1.832549621278e+03 
       2.505880835273e-01       1.753135085819e+03 
       2.590061770506e-01       1.678611190242e+03 
       2.677231426566e-01       1.611873634765e+03 
       2.767548367261e-01       1.551600912961e+03 
       2.861191196088e-01       1.493703170317e+03 
       2.958362262751e-01       1.434948041428e+03 
       3.059292182836e-01       1.375582024093e+03 
       3.164245409043e-01       1.318457716325e+03 
       3.273527177795e-01       1.265667332892e+03 
       3.387492276483e-01       1.216387041227e+03 
       3.506556252076e-01       1.168223337416e+03 
       3.631209939937e-01       1.120218870033e+03 
       3.762038578754e-01       1.073593358162e+03 
       3.899747370328e-01       1.029425215359e+03 
       4.045196272279e-01       9.869648706204e+02 
       4.199448306356e-01       9.450902338401e+02 
       4.363838138647e-01       9.040350227672e+02 
       4.540071914474e-01       8.642644713259e+02 
       4.730376817101e-01       8.251948030078e+02 
       4.937732629614e-01       7.864057933197e+02 
       5.166244259300e-01       7.479733504479e+02 
       5.421768504752e-01       7.094075671891e+02 
       5.713025723102e-01       6.702702246256e+02 
       6.053698061641e-01       6.299635024911e+02 
       6.466686844331e-01       5.875271698505e+02 
       6.993463923664e-01       5.414817463096e+02 
       7.716029533159e-01       4.894396562005e+02 
       8.806367900964e-01       4.278878665478e+02 
       1.057390334797e+00       3.549450928323e+02 
       1.320891793491e+00       2.797675327010e+02 
       1.662475815217e+00       2.130955892594e+02 
       2.092929272888e+00       1.560078672237e+02 
       2.634841841085e+00       1.092547101571e+02 
       3.317069349799e+00       7.343946390765e+01 
       4.175942897146e+00       4.773309212181e+01 
       5.257200631419e+00       3.022894774982e+01 
       6.618423469793e+00       1.877569807561e+01 
       8.332101492138e+00       1.149766994686e+01 
       1.048949430210e+01       6.969174899692e+00 
