# Matter power spectrum P(k) at redshift z=2
# for k=2.13409e-07 to 10.7071 h/Mpc,
# number of wavenumbers equal to 139
#    1:k (h/Mpc)              2:P (Mpc/h)^3        
       2.134094022924e-07       1.845928767754e-01 
       2.686665196617e-07       2.294166520952e-01 
       3.382311089004e-07       2.851247630338e-01 
       4.258077380540e-07       3.543601988658e-01 
       5.360601819748e-07       4.404077329076e-01 
       6.748597853390e-07       5.473497633254e-01 
       8.495981331613e-07       6.802599966100e-01 
       1.069580679650e-06       8.454441615260e-01 
       1.346522297575e-06       1.050739174055e+00 
       1.695171137965e-06       1.305884947382e+00 
       2.134094022924e-06       1.622986483539e+00 
       2.686665196617e-06       2.017088170890e+00 
       3.382311089004e-06       2.506887529871e+00 
       4.258077380540e-06       3.115622263692e+00 
       5.360601819748e-06       3.872172684943e+00 
       6.748597853390e-06       4.812431799474e+00 
       8.495981331613e-06       5.981007996644e+00 
       1.069580679650e-05       7.433341040371e+00 
       1.346522297575e-05       9.238331549288e+00 
       1.695171137965e-05       1.148160837095e+01 
       2.134094022924e-05       1.426958811548e+01 
       2.686665196617e-05       1.773451804412e+01 
       3.382311089004e-05       2.204073872532e+01 
       4.258077380540e-05       2.739245807196e+01 
       5.360601819748e-05       3.404339466909e+01 
       6.748597853390e-05       4.230872656472e+01 
       8.495981331613e-05       5.257987037005e+01 
       1.069580679650e-04       6.534270969937e+01 
       1.346522297575e-04       8.119997739453e+01 
       1.695171137965e-04       1.008985422922e+02 
       2.134094022924e-04       1.253622968780e+02 
       2.686665196617e-04       1.557310718655e+02 
       3.382311089004e-04       1.934053221288e+02 
       4.258077380540e-04       2.400949485529e+02 
       5.360601819748e-04       2.978682473330e+02 
       6.748597853390e-04       3.691936337867e+02 
       8.495981331613e-04       4.569634362573e+02 
       1.069580679650e-03       5.644874323465e+02 
       1.346522297575e-03       6.954410560740e+02 
       1.695171137965e-03       8.537297864492e+02 
       2.134094022924e-03       1.043174542405e+03 
       2.686665196617e-03       1.266935093230e+03 
       3.382311089004e-03       1.526690101602e+03 
       4.258077380540e-03       1.821496397545e+03 
       5.360601819748e-03       2.144859712808e+03 
       6.748597853390e-03       2.487678508800e+03 
       8.495981331613e-03       2.829556701264e+03 
       1.069580679650e-02       3.140722320683e+03 
       1.346522297575e-02       3.379933956241e+03 
       1.695171137952e-02       3.496499718727e+03 
       2.134093970207e-02       3.440403569414e+03 
       2.686635195122e-02       3.187226099521e+03 
       3.379034315993e-02       2.777771551746e+03 
       4.170379060308e-02       2.363725396511e+03 
       4.799680242418e-02       2.121968353794e+03 
       5.264365280337e-02       1.987172095802e+03 
       5.653714068790e-02       1.893408240894e+03 
       6.004296242502e-02       1.817317773348e+03 
       6.332893542463e-02       1.748703927069e+03 
       6.648586955029e-02       1.682372618078e+03 
       6.956908544360e-02       1.615585293007e+03 
       7.261535907089e-02       1.547076302134e+03 
       7.565085693240e-02       1.476592244345e+03 
       7.869525572583e-02       1.404618546860e+03 
       8.176405668868e-02       1.332170513329e+03 
       8.486996888620e-02       1.260601274938e+03 
       8.802377821697e-02       1.191412147613e+03 
       9.123491599224e-02       1.126068001313e+03 
       9.451184363533e-02       1.065826338780e+03 
       9.786232028371e-02       1.011591948853e+03 
       1.012935932221e-01       9.638066341145e+02 
       1.048125359099e-01       9.223816051744e+02 
       1.084257494643e-01       8.866784070126e+02 
       1.121396380592e-01       8.555460219140e+02 
       1.159604653312e-01       8.274241763636e+02 
       1.198943967303e-01       8.005210847803e+02 
       1.239475313567e-01       7.730643910188e+02 
       1.281259258982e-01       7.436008446026e+02 
       1.324356126743e-01       7.112897605052e+02 
       1.368826133814e-01       6.761108301418e+02 
       1.414729498626e-01       6.389056244974e+02 
       1.462126530503e-01       6.012087843059e+02 
       1.511077711102e-01       5.648886415665e+02 
       1.561643777467e-01       5.316850668941e+02 
       1.613885815797e-01       5.027681652990e+02 
       1.667865374780e-01       4.784339831421e+02 
       1.723644607135e-01       4.580161564537e+02 
       1.781286447897e-01       4.400526325478e+02 
       1.840854837890e-01       4.227037670841e+02 
       1.902415000812e-01       4.043455438906e+02 
       1.966033782382e-01       3.841526914548e+02 
       2.031780060169e-01       3.624111259872e+02 
       2.099725233076e-01       3.403642025860e+02 
       2.169943800068e-01       3.196228351759e+02 
       2.242514038773e-01       3.014160936778e+02 
       2.317518796144e-01       2.860456416989e+02 
       2.395046405619e-01       2.727975108526e+02 
       2.475191748385e-01       2.603573312781e+02 
       2.558057480706e-01       2.475454935604e+02 
       2.643755455089e-01       2.339754707244e+02 
       2.732408370829e-01       2.202018327090e+02 
       2.824151699747e-01       2.072330057309e+02 
       2.919135946529e-01       1.957658230852e+02 
       3.017529321060e-01       1.857138516882e+02 
       3.119520924163e-01       1.763639556216e+02 
       3.225324580434e-01       1.670141252023e+02 
       3.335183495699e-01       1.575453845551e+02 
       3.449375976916e-01       1.484061894138e+02 
       3.568222536333e-01       1.400532783387e+02 
       3.692094820540e-01       1.324633483148e+02 
       3.821426975751e-01       1.252314341361e+02 
       3.956730310214e-01       1.180887181649e+02 
       4.098612486458e-01       1.111699779270e+02 
       4.247803041339e-01       1.047074387228e+02 
       4.405187910952e-01       9.865004611940e+01 
       4.571857038725e-01       9.278558899584e+01 
       4.749171441272e-01       8.709171318565e+01 
       4.938859986702e-01       8.167164714398e+01 
       5.143162927323e-01       7.647453218926e+01 
       5.365051573053e-01       7.140576562579e+01 
       5.608576958701e-01       6.648603839516e+01 
       5.879447269594e-01       6.167810780502e+01 
       6.186033079099e-01       5.692046786898e+01 
       6.541223519200e-01       5.217626103062e+01 
       6.966098472794e-01       4.736155794328e+01 
       7.497781810101e-01       4.237439123298e+01 
       8.207552077432e-01       3.705948975557e+01 
       9.243331610604e-01       3.122259768581e+01 
       1.089937090183e+00       2.482842464831e+01 
       1.349252684678e+00       1.868596879580e+01 
       1.696982227732e+00       1.391917278943e+01 
       2.136349737574e+00       1.039919880674e+01 
       2.689504904748e+00       7.741300220496e+00 
       3.385886069707e+00       5.699527015053e+00 
       4.262578014594e+00       4.123760194625e+00 
       5.366267782327e+00       2.917455465182e+00 
       6.755730877664e+00       2.011222931004e+00 
       8.504961277134e+00       1.348287301742e+00 
       1.070711187811e+01       8.785277782613e-01 
