# Matter power spectrum P(k) at redshift z=0
# for k=2.09e-07 to 10.4895 h/Mpc,
# number of wavenumbers equal to 139
#    1:k (h/Mpc)              2:P (Mpc/h)^3        
       2.090002883584e-07       5.744419691572e-01 
       2.631157740867e-07       7.213668190749e-01 
       3.312431342416e-07       9.058705934969e-01 
       4.170103991791e-07       1.137564842436e+00 
       5.249849885090e-07       1.428519458778e+00 
       6.609169428444e-07       1.793891447737e+00 
       8.320451344322e-07       2.252714516064e+00 
       1.047482763496e-06       2.828890613618e+00 
       1.318702669382e-06       3.552435080118e+00 
       1.660148301086e-06       4.461040260687e+00 
       2.090002883584e-06       5.602039041744e+00 
       2.631157740867e-06       7.034870591295e+00 
       3.312431342416e-06       8.834176742728e+00 
       4.170103991791e-06       1.109369030428e+01 
       5.249849885090e-06       1.393111780783e+01 
       6.609169428444e-06       1.749427097594e+01 
       8.320451344322e-06       2.196876615058e+01 
       1.047482763496e-05       2.758769243543e+01 
       1.318702669382e-05       3.464375154569e+01 
       1.660148301086e-05       4.350450042572e+01 
       2.090002883584e-05       5.463148804579e+01 
       2.631157740867e-05       6.860427799150e+01 
       3.312431342416e-05       8.615059778407e+01 
       4.170103991791e-05       1.081841646557e+02 
       5.249849885090e-05       1.358521168472e+02 
       6.609169428444e-05       1.705944392757e+02 
       8.320451344322e-05       2.142183170797e+02 
       1.047482763496e-04       2.689909713330e+02 
       1.318702669382e-04       3.377551892607e+02 
       1.660148301086e-04       4.240723605805e+02 
       2.090002883584e-04       5.323981747336e+02 
       2.631157740867e-04       6.682958721908e+02 
       3.312431342416e-04       8.386905657648e+02 
       4.170103991791e-04       1.052165122520e+03 
       5.249849885090e-04       1.319293243825e+03 
       6.609169428444e-04       1.652998735066e+03 
       8.320451344322e-04       2.068917709443e+03 
       1.047482763496e-03       2.585704582509e+03 
       1.318702669382e-03       3.225144242077e+03 
       1.660148301086e-03       4.011872060889e+03 
       2.090002883584e-03       4.972474320851e+03 
       2.631157740867e-03       6.133536336637e+03 
       3.312431342416e-03       7.518244738413e+03 
       4.170103991791e-03       9.102411326366e+03 
       5.249849885090e-03       1.094049539666e+04 
       6.609169428444e-03       1.297328023171e+04 
       8.320451344322e-03       1.512256201283e+04 
       1.047482763496e-02       1.724870933932e+04 
       1.318702669382e-02       1.913599347385e+04 
       1.660148300853e-02       2.049413243294e+04 
       2.090002397638e-02       2.100570934912e+04 
       2.631004181833e-02       2.046066642103e+04 
       3.302073882314e-02       1.899544287517e+04 
       3.997857390469e-02       1.742494724379e+04 
       4.505624412868e-02       1.647227203979e+04 
       4.898458424494e-02       1.585192255367e+04 
       5.237407051508e-02       1.537323165545e+04 
       5.547489633474e-02       1.495839309887e+04 
       5.840905198133e-02       1.456869611555e+04 
       6.124552709337e-02       1.418241055750e+04 
       6.402771549916e-02       1.378714787149e+04 
       6.678517941768e-02       1.337676143641e+04 
       6.953937086079e-02       1.294986279694e+04 
       7.230668837612e-02       1.250891052306e+04 
       7.510023307759e-02       1.205943712929e+04 
       7.793087712666e-02       1.160922891500e+04 
       8.080794478108e-02       1.116739591290e+04 
       8.373966334869e-02       1.074334399100e+04 
       8.673347132937e-02       1.034570595542e+04 
       8.979623451407e-02       9.981310865900e+03 
       9.293440078721e-02       9.654279259968e+03 
       9.615411291615e-02       9.365326990467e+03 
       9.946129180385e-02       9.111366444624e+03 
       1.028616985096e-01       8.885502493144e+03 
       1.063609807186e-01       8.677537161774e+03 
       1.099647076542e-01       8.475089242816e+03 
       1.136783963243e-01       8.265363837022e+03 
       1.175075312633e-01       8.037437539647e+03 
       1.214575794463e-01       7.784671154158e+03 
       1.255340017287e-01       7.506615214784e+03 
       1.297422619505e-01       7.209693323612e+03 
       1.340878347046e-01       6.906171667354e+03 
       1.385762126783e-01       6.611436122789e+03 
       1.432129144212e-01       6.340191135633e+03 
       1.480034933562e-01       6.102579823707e+03 
       1.529535488280e-01       5.901264039195e+03 
       1.580687399716e-01       5.730297771257e+03 
       1.633548031697e-01       5.576358923517e+03 
       1.688175738645e-01       5.422523370976e+03 
       1.744630134882e-01       5.253979114147e+03 
       1.802972422821e-01       5.063834410948e+03 
       1.863265787940e-01       4.856245965000e+03 
       1.925575868840e-01       4.644723870264e+03 
       1.989971311352e-01       4.445911454260e+03 
       2.056524416746e-01       4.271789526602e+03 
       2.125311895690e-01       4.124149262805e+03 
       2.196415741938e-01       3.994040938817e+03 
       2.269924242882e-01       3.866765889586e+03 
       2.345933148493e-01       3.730326355609e+03 
       2.424547025987e-01       3.582553518601e+03 
       2.505880835273e-01       3.431796714839e+03 
       2.590061770506e-01       3.290238197850e+03 
       2.677231426566e-01       3.164802858608e+03 
       2.767548367261e-01       3.052584853838e+03 
       2.861191196088e-01       2.944164185280e+03 
       2.958362262751e-01       2.832078503745e+03 
       3.059292182836e-01       2.717018101464e+03 
       3.164245409043e-01       2.605785901892e+03 
       3.273527177795e-01       2.503374221372e+03 
       3.387492276483e-01       2.407941659509e+03 
       3.506556252076e-01       2.314010850218e+03 
       3.631209939937e-01       2.219485341427e+03 
       3.762038578754e-01       2.127309020105e+03 
       3.899747370328e-01       2.040041875163e+03 
       4.045196272279e-01       1.956033209507e+03 
       4.199448306356e-01       1.872834396897e+03 
       4.363838138647e-01       1.791087149093e+03 
       4.540071914474e-01       1.711912272634e+03 
       4.730376817101e-01       1.634102439360e+03 
       4.937732629614e-01       1.556852336883e+03 
       5.166244259300e-01       1.480428571874e+03 
       5.421768504752e-01       1.403906093001e+03 
       5.713025723102e-01       1.326503554497e+03 
       6.053698061641e-01       1.247142350290e+03 
       6.466686844331e-01       1.164061010442e+03 
       6.993463923664e-01       1.074518493674e+03 
       7.716029533159e-01       9.739864812221e+02 
       8.806367900964e-01       8.553427304179e+02 
       1.057390334797e+00       7.125602171185e+02 
       1.320891793491e+00       5.586062804064e+02 
       1.662475815217e+00       4.162908137146e+02 
       2.092929272888e+00       2.953643690450e+02 
       2.634841841085e+00       2.007838655617e+02 
       3.317069349799e+00       1.319934353712e+02 
       4.175942897146e+00       8.463590831936e+01 
       5.257200631419e+00       5.330232833361e+01 
       6.618423469793e+00       3.314350632630e+01 
       8.332101492138e+00       2.042463975236e+01 
       1.048949430210e+01       1.250759114210e+01 
