# Matter power spectrum P(k) at redshift z=0.5
# for k=2.05299e-07 to 10.3021 h/Mpc,
# number of wavenumbers equal to 139
#    1:k (h/Mpc)              2:P (Mpc/h)^3        
       2.052988228862e-07       8.395364108642e-01 
       2.584559051428e-07       1.045705846496e+00 
       3.253767068126e-07       1.302505410062e+00 
       4.096250046123e-07       1.622368611959e+00 
       5.156873276127e-07       2.020782325586e+00 
       6.492118812718e-07       2.517036617716e+00 
       8.173093349718e-07       3.135158718270e+00 
       1.028931491093e-06       3.905076349410e+00 
       1.295348001132e-06       4.864066737977e+00 
       1.630746515742e-06       6.058561467087e+00 
       2.052988228862e-06       7.546394549404e+00 
       2.584559051428e-06       9.399602560522e+00 
       3.253767068126e-06       1.170791239594e+01 
       4.096250046123e-06       1.458308549334e+01 
       5.156873276127e-06       1.816432880542e+01 
       6.492118812718e-06       2.262503441368e+01 
       8.173093349718e-06       2.818117390428e+01 
       1.028931491093e-05       3.510175356686e+01 
       1.295348001132e-05       4.372183588126e+01 
       1.630746515742e-05       5.445875630433e+01 
       2.052988228862e-05       6.783231764745e+01 
       2.584559051428e-05       8.448993411286e+01 
       3.253767068126e-05       1.052379311983e+02 
       4.096250046123e-05       1.310804948278e+02 
       5.156873276127e-05       1.632681120431e+02 
       6.492118812718e-05       2.033577630399e+02 
       8.173093349718e-05       2.532876110351e+02 
       1.028931491093e-04       3.154694779083e+02 
       1.295348001132e-04       3.929029443874e+02 
       1.630746515742e-04       4.893153677013e+02 
       2.052988228862e-04       6.093322533921e+02 
       2.584559051428e-04       7.586818693368e+02 
       3.253767068126e-04       9.444361607216e+02 
       4.096250046123e-04       1.175286228519e+03 
       5.156873276127e-04       1.461844542021e+03 
       6.492118812718e-04       1.816958322138e+03 
       8.173093349718e-04       2.256008963888e+03 
       1.028931491093e-03       2.797148759414e+03 
       1.295348001132e-03       3.461352595034e+03 
       1.630746515742e-03       4.272026600904e+03 
       2.052988228862e-03       5.253993164685e+03 
       2.584559051428e-03       6.431453749911e+03 
       3.253767068126e-03       7.824409448783e+03 
       4.096250046123e-03       9.412273475127e+03 
       5.156873276127e-03       1.123349858085e+04 
       6.492118812718e-03       1.322779377169e+04 
       8.173093349718e-03       1.530881317876e+04 
       1.028931491093e-02       1.732447808879e+04 
       1.295348001132e-02       1.903904111648e+04 
       1.630746515688e-02       2.013156082037e+04 
       2.052988070070e-02       2.024636198910e+04 
       2.584491932325e-02       1.914941891774e+04 
       3.248016785503e-02       1.701446984818e+04 
       3.974469144438e-02       1.480929890929e+04 
       4.523564060676e-02       1.354744312633e+04 
       4.938374091562e-02       1.282451307338e+04 
       5.291324587099e-02       1.232487207908e+04 
       5.611769394132e-02       1.192810294481e+04 
       5.913598885886e-02       1.157662269702e+04 
       6.204501030766e-02       1.123806800143e+04 
       6.489236215236e-02       1.089304701543e+04 
       6.771008580398e-02       1.053043969343e+04 
       7.052120701991e-02       1.014533690819e+04 
       7.334318463934e-02       9.737934494444e+03 
       7.618987009294e-02       9.312697586425e+03 
       7.907268923208e-02       8.877489246977e+03 
       8.200139023984e-02       8.442545769768e+03 
       8.498453593987e-02       8.019293194900e+03 
       8.802983855676e-02       7.619074856046e+03 
       9.114439353954e-02       7.251897132630e+03 
       9.433484651501e-02       6.925304604532e+03 
       9.760751461825e-02       6.643473938403e+03 
       1.009684758781e-01       6.406584777292e+03 
       1.044236357200e-01       6.210512576614e+03 
       1.079787767573e-01       6.046908590648e+03 
       1.116395961887e-01       5.903779831999e+03 
       1.154117339120e-01       5.766716409724e+03 
       1.193007936659e-01       5.620866515932e+03 
       1.233123589823e-01       5.453562295379e+03 
       1.274520053759e-01       5.257155789984e+03 
       1.317253099661e-01       5.031266917548e+03 
       1.361378595702e-01       4.783517997488e+03 
       1.406952582099e-01       4.528151606556e+03 
       1.454031349093e-01       4.282663193915e+03 
       1.502671526235e-01       4.063367066269e+03 
       1.552930191125e-01       3.881180886175e+03 
       1.604865005597e-01       3.738708212649e+03 
       1.658534387235e-01       3.629241171545e+03 
       1.713997724029e-01       3.538052018932e+03 
       1.771315639972e-01       3.446267199872e+03 
       1.830550319448e-01       3.337058693562e+03 
       1.891765898417e-01       3.202364498441e+03 
       1.955028930793e-01       3.046772574751e+03 
       2.020408939026e-01       2.885661738808e+03 
       2.087979058929e-01       2.737908851132e+03 
       2.157816790323e-01       2.616970056525e+03 
       2.230004867317e-01       2.524813327694e+03 
       2.304632265095e-01       2.451259563081e+03 
       2.381795364340e-01       2.379226614585e+03 
       2.461599300077e-01       2.294308692091e+03 
       2.544159529249e-01       2.193706624442e+03 
       2.629603661313e-01       2.087651849966e+03 
       2.718073609307e-01       1.991281119039e+03 
       2.809728136344e-01       1.913252572011e+03 
       2.904745895800e-01       1.849878310275e+03 
       3.003329094909e-01       1.788891779077e+03 
       3.105707954235e-01       1.720281687889e+03 
       3.212146194452e-01       1.645153582796e+03 
       3.322947864149e-01       1.573342375552e+03 
       3.438465939129e-01       1.512051731287e+03 
       3.559113291838e-01       1.458330271923e+03 
       3.685376876174e-01       1.403697139177e+03 
       3.817836341534e-01       1.345234300295e+03 
       3.957188852396e-01       1.288393967988e+03 
       4.104282767844e-01       1.237492335792e+03 
       4.260164241422e-01       1.189112577062e+03 
       4.426143116735e-01       1.139055983395e+03 
       4.603888427779e-01       1.089634051960e+03 
       4.795570736014e-01       1.043128287982e+03 
       5.004081215781e-01       9.966113767243e+02 
       5.233381695462e-01       9.495820255893e+02 
       5.489088869892e-01       9.032998108189e+02 
       5.779500689449e-01       8.557959976543e+02 
       6.117512096072e-01       8.070399986573e+02 
       6.524452525667e-01       7.554894440573e+02 
       7.038402847676e-01       6.995117099298e+02 
       7.733565108668e-01       6.359719642760e+02 
       8.765026787879e-01       5.600279490161e+02 
       1.042887585506e+00       4.670639625834e+02 
       1.297620585377e+00       3.653550206764e+02 
       1.632775767629e+00       2.730128751798e+02 
       2.055533314409e+00       1.953679420358e+02 
       2.587763104508e+00       1.339278747675e+02 
       3.257800731963e+00       8.847105234958e+01 
       4.101328128030e+00       5.674632086118e+01 
       5.163266202483e+00       3.559003743662e+01 
       6.500167030164e+00       2.195313898350e+01 
       8.183225455180e+00       1.337838736725e+01 
       1.030207047597e+01       8.081929721959e+00 
