# Matter power spectrum P(k) at redshift z=2
# for k=2.33661e-07 to 11.7273 h/Mpc,
# number of wavenumbers equal to 139
#    1:k (h/Mpc)              2:P (Mpc/h)^3        
       2.336606073989e-07       1.636723938669e-01 
       2.941612763897e-07       2.035285948562e-01 
       3.703271060128e-07       2.530902611899e-01 
       4.662142044357e-07       3.147207906117e-01 
       5.869289093035e-07       3.913590965311e-01 
       7.388997188388e-07       4.866597535919e-01 
       9.302196328138e-07       6.051672686766e-01 
       1.171077134299e-06       7.525327905912e-01 
       1.474298763540e-06       9.357835898862e-01 
       1.856032177998e-06       1.163658161161e+00 
       2.336606073989e-06       1.447022923905e+00 
       2.941612763897e-06       1.799390395634e+00 
       3.703271060128e-06       2.237563540867e+00 
       4.662142044357e-06       2.782437024433e+00 
       5.869289093035e-06       3.459993562547e+00 
       7.388997188388e-06       4.302542877333e+00 
       9.302196328138e-06       5.350262302463e+00 
       1.171077134299e-05       6.653112451167e+00 
       1.474298763540e-05       8.273219190045e+00 
       1.856032177998e-05       1.028783528548e+01 
       2.336606073989e-05       1.279302253854e+01 
       2.941612763897e-05       1.590822914695e+01 
       3.703271060128e-05       1.978197893966e+01 
       4.662142044357e-05       2.459894054197e+01 
       5.869289093035e-05       3.058870718910e+01 
       7.388997188388e-05       3.803669339900e+01 
       9.302196328138e-05       4.729764342710e+01 
       1.171077134299e-04       5.881234756619e+01 
       1.474298763540e-04       7.312826911628e+01 
       1.856032177998e-04       9.092488247100e+01 
       2.336606073989e-04       1.130445770266e+02 
       2.941612763897e-04       1.405299269055e+02 
       3.703271060128e-04       1.746678451766e+02 
       4.662142044357e-04       2.170404496902e+02 
       5.869289093035e-04       2.695811428864e+02 
       7.388997188388e-04       3.346323360241e+02 
       9.302196328138e-04       4.149987410569e+02 
       1.171077134299e-03       5.139879246460e+02 
       1.474298763540e-03       6.354262999208e+02 
       1.856032177998e-03       7.836231482984e+02 
       2.336606073989e-03       9.632172552882e+02 
       2.941612763897e-03       1.178830363344e+03 
       3.703271060128e-03       1.434494546630e+03 
       4.662142044357e-03       1.729589176722e+03 
       5.869289093035e-03       2.068513752487e+03 
       7.388997188388e-03       2.443947072495e+03 
       9.302196328138e-03       2.843506362300e+03 
       1.171077134299e-02       3.244976641020e+03 
       1.474298763540e-02       3.614037121593e+03 
       1.856032177455e-02       3.904334753342e+03 
       2.336605126885e-02       4.063952672050e+03 
       2.941354784390e-02       4.053665188855e+03 
       3.687888646993e-02       3.879796289208e+03 
       4.437164464261e-02       3.652971399405e+03 
       4.977830783530e-02       3.491050741146e+03 
       5.401224568770e-02       3.368931895169e+03 
       5.768999445285e-02       3.264964931103e+03 
       6.106702240016e-02       3.169812913284e+03 
       6.426978649592e-02       3.078858728638e+03 
       6.737057768403e-02       2.989638789437e+03 
       7.041522695291e-02       2.900877726542e+03 
       7.343514843450e-02       2.812056817087e+03 
       7.645325142071e-02       2.723183054297e+03 
       7.948712154297e-02       2.634635925287e+03 
       8.255085852956e-02       2.547044821072e+03 
       8.565619943656e-02       2.461174913752e+03 
       8.881323721543e-02       2.377816209130e+03 
       9.203089794545e-02       2.297676422391e+03 
       9.531726774561e-02       2.221282948056e+03 
       9.867982250734e-02       2.148901980044e+03 
       1.021255927365e-01       2.080484906165e+03 
       1.056612838136e-01       2.015650594674e+03 
       1.092933648460e-01       1.953712858691e+03 
       1.130281349027e-01       1.893757327646e+03 
       1.168717726583e-01       1.834766624707e+03 
       1.208303736954e-01       1.775782208118e+03 
       1.249099785471e-01       1.716079611053e+03 
       1.291165937942e-01       1.655323226889e+03 
       1.334562080146e-01       1.593659254971e+03 
       1.379348040449e-01       1.531712415472e+03 
       1.425583687833e-01       1.470469114813e+03 
       1.473329016215e-01       1.411059807451e+03 
       1.522644224916e-01       1.354485189984e+03 
       1.573589804616e-01       1.301354970068e+03 
       1.626226637686e-01       1.251716195794e+03 
       1.680616121624e-01       1.205032611201e+03 
       1.736820324109e-01       1.160342688091e+03 
       1.794902178124e-01       1.116568888437e+03 
       1.854925725533e-01       1.072889021496e+03 
       1.916956417455e-01       1.029033483238e+03 
       1.981061479914e-01       9.853741707697e+02 
       2.047310353443e-01       9.427445070580e+02 
       2.115775215760e-01       9.020522807262e+02 
       2.186531597458e-01       8.638594910028e+02 
       2.259659101831e-01       8.281341706576e+02 
       2.335242241788e-01       7.943053905896e+02 
       2.413371409443e-01       7.615994964570e+02 
       2.494143997508e-01       7.294745692173e+02 
       2.577665696580e-01       6.978932377736e+02 
       2.664051998895e-01       6.672592911177e+02 
       2.753429947862e-01       6.380670696193e+02 
       2.845940184140e-01       6.105224502096e+02 
       2.941739354233e-01       5.844155130480e+02 
       3.041002967770e-01       5.593254807327e+02 
       3.143928816635e-01       5.349673971372e+02 
       3.250741105561e-01       5.113707736469e+02 
       3.361695493588e-01       4.887452679022e+02 
       3.477085314591e-01       4.671982156883e+02 
       3.597249341532e-01       4.466090977994e+02 
       3.722581596450e-01       4.267716890332e+02 
       3.853543906917e-01       4.076007979606e+02 
       3.990682202512e-01       3.891444774644e+02 
       4.134647984753e-01       3.714229327749e+02 
       4.286227078968e-01       3.543476704747e+02 
       4.446378837067e-01       3.378184709338e+02 
       4.616290669856e-01       3.218042075756e+02 
       4.797455624521e-01       3.062780202314e+02 
       4.991785584938e-01       2.911617468033e+02 
       5.201781313545e-01       2.763775472027e+02 
       5.430796555052e-01       2.618596150034e+02 
       5.683464470490e-01       2.475098206959e+02 
       5.966418198044e-01       2.332082294619e+02 
       6.289575376224e-01       2.188015141856e+02 
       6.668577122685e-01       2.040706379695e+02 
       7.129770581076e-01       1.886953288413e+02 
       7.721229030377e-01       1.721811683464e+02 
       8.538715303473e-01       1.537645769429e+02 
       9.783063508170e-01       1.324478802056e+02 
       1.180157353055e+00       1.082485799645e+02 
       1.476646507412e+00       8.496244751087e+01 
       1.858657949079e+00       6.546711095388e+01 
       2.339909203352e+00       4.926948852311e+01 
       2.945771154225e+00       3.588225376301e+01 
       3.708506163384e+00       2.514260619766e+01 
       4.668732648879e+00       1.694305036326e+01 
       5.877586172547e+00       1.102954790393e+01 
       7.399442592630e+00       6.980756902211e+00 
       9.315346312974e+00       4.322576845467e+00 
       1.172732619307e+01       2.632683853013e+00 
