# Matter power spectrum P(k) at redshift z=0
# for k=2.02933e-07 to 10.1827 h/Mpc,
# number of wavenumbers equal to 139
#    1:k (h/Mpc)              2:P (Mpc/h)^3        
       2.029332956955e-07       1.565143347870e+00 
       2.554778828502e-07       1.950851085019e+00 
       3.216275988715e-07       2.431611110868e+00 
       4.049051573537e-07       3.030847734817e+00 
       5.097453919591e-07       3.777757859309e+00 
       6.417314274823e-07       4.708733554424e+00 
       8.078920016044e-07       5.869135204502e+00 
       1.017075770805e-06       7.315501620792e+00 
       1.280422533587e-06       9.118304801956e+00 
       1.611956465366e-06       1.136538356068e+01 
       2.029332956955e-06       1.416622330604e+01 
       2.554778828502e-06       1.765729049313e+01 
       3.216275988715e-06       2.200868162440e+01 
       4.049051573537e-06       2.743241070177e+01 
       5.097453919591e-06       3.419273881004e+01 
       6.417314274823e-06       4.261904889394e+01 
       8.078920016044e-06       5.312189257129e+01 
       1.017075770805e-05       6.621298994192e+01 
       1.280422533587e-05       8.253015507018e+01 
       1.611956465366e-05       1.028683580621e+02 
       2.029332956955e-05       1.282184302705e+02 
       2.554778828502e-05       1.598152847139e+02 
       3.216275988715e-05       1.991979741318e+02 
       4.049051573537e-05       2.482844595129e+02 
       5.097453919591e-05       3.094646268827e+02 
       6.417314274823e-05       3.857158778000e+02 
       8.078920016044e-05       4.807465199687e+02 
       1.017075770805e-04       5.991731533535e+02 
       1.280422533587e-04       7.467391605329e+02 
       1.611956465366e-04       9.305820059103e+02 
       2.029332956955e-04       1.159556825841e+03 
       2.554778828502e-04       1.444621915021e+03 
       3.216275988715e-04       1.799287034664e+03 
       4.049051573537e-04       2.240116955114e+03 
       5.097453919591e-04       2.787270416709e+03 
       6.417314274823e-04       3.465039753697e+03 
       8.078920016044e-04       4.302330795933e+03 
       1.017075770805e-03       5.332944669539e+03 
       1.280422533587e-03       6.595351853992e+03 
       1.611956465366e-03       8.131537179554e+03 
       2.029332956955e-03       9.984456929592e+03 
       2.554778828502e-03       1.219337330034e+04 
       3.216275988715e-03       1.478633322674e+04 
       4.049051573537e-03       1.776902685467e+04 
       5.097453919591e-03       2.099244231943e+04 
       6.417314274823e-03       2.454158527485e+04 
       8.078920016044e-03       2.815508275187e+04 
       1.017075770805e-02       3.153433629533e+04 
       1.280422533587e-02       3.424464537282e+04 
       1.611956465334e-02       3.572831994887e+04 
       2.029332848636e-02       3.541058650912e+04 
       2.554728374106e-02       3.298009923721e+04 
       3.211596170940e-02       2.886036760447e+04 
       3.941920660420e-02       2.478646930041e+04 
       4.502368913915e-02       2.252211240153e+04 
       4.922494863977e-02       2.127775753725e+04 
       5.278220575551e-02       2.043894818847e+04 
       5.600332130032e-02       1.977939260225e+04 
       5.903252070750e-02       1.919377955107e+04 
       6.194904727393e-02       1.862425301034e+04 
       6.480170928103e-02       1.803712758046e+04 
       6.762322611053e-02       1.741412024342e+04 
       7.043703440589e-02       1.674851432305e+04 
       7.326085646618e-02       1.604302757281e+04 
       7.610872026480e-02       1.530809581625e+04 
       7.899217418603e-02       1.456002881436e+04 
       8.192105392104e-02       1.381887026826e+04 
       8.490398627904e-02       1.310601713997e+04 
       8.794873121088e-02       1.244178512061e+04 
       9.106242038478e-02       1.184314808091e+04 
       9.425172734680e-02       1.132184568655e+04 
       9.752299107518e-02       1.088297687915e+04 
       1.008823069451e-01       1.052412414817e+04 
       1.043355943764e-01       1.023504640739e+04 
       1.078886474686e-01       9.998060383071e+03 
       1.115471730284e-01       9.789364403641e+03 
       1.153168191562e-01       9.581637360516e+03 
       1.192031967432e-01       9.348094907001e+03 
       1.232118956849e-01       9.067682606417e+03 
       1.273484972577e-01       8.730305612838e+03 
       1.316185838635e-01       8.340331302951e+03 
       1.360277471897e-01       7.916625627253e+03 
       1.405815957325e-01       7.488416152934e+03 
       1.452857625648e-01       7.087939545483e+03 
       1.501459141893e-01       6.742139349649e+03 
       1.551677612964e-01       6.465818531529e+03 
       1.603570722239e-01       6.257770870330e+03 
       1.657196899112e-01       6.100531620291e+03 
       1.712615531290e-01       5.964233271858e+03 
       1.769887227645e-01       5.815013591585e+03 
       1.829074139487e-01       5.626910228764e+03 
       1.890240348251e-01       5.392890771460e+03 
       1.953452327978e-01       5.128524318410e+03 
       2.018779491560e-01       4.864664531447e+03 
       2.086294830745e-01       4.632505909045e+03 
       2.156075661377e-01       4.449176097043e+03 
       2.228204487554e-01       4.310655195401e+03 
       2.302770001405e-01       4.194531414343e+03 
       2.379868239373e-01       4.071946544124e+03 
       2.459603921438e-01       3.924271931827e+03 
       2.542092007186e-01       3.754482713562e+03 
       2.627459512396e-01       3.583563727486e+03 
       2.715847642867e-01       3.433901197727e+03 
       2.807414319386e-01       3.313056643261e+03 
       2.902337190745e-01       3.209878654188e+03 
       3.000817262665e-01       3.105098675011e+03 
       3.103083312543e-01       2.988320816772e+03 
       3.209397317908e-01       2.866236303763e+03 
       3.320061207323e-01       2.753355061233e+03 
       3.435425357057e-01       2.655726885424e+03 
       3.555899421777e-01       2.565807706207e+03 
       3.681966329094e-01       2.473259889863e+03 
       3.814200628551e-01       2.377837197763e+03 
       3.953292935375e-01       2.287226331378e+03 
       4.100083066505e-01       2.204084428589e+03 
       4.255605836865e-01       2.122961022312e+03 
       4.421155736779e-01       2.040762446726e+03 
       4.598380532444e-01       1.960820582052e+03 
       4.789420542617e-01       1.883938410667e+03 
       4.997122607842e-01       1.806920833166e+03 
       5.225381204544e-01       1.729934672757e+03 
       5.479706288500e-01       1.653129968572e+03 
       5.768217889842e-01       1.574463532110e+03 
       6.103495856411e-01       1.493173087280e+03 
       6.506269849852e-01       1.406785892252e+03 
       7.013381471643e-01       1.311980669539e+03 
       7.696270527871e-01       1.202753342504e+03 
       8.703953153526e-01       1.068858382666e+03 
       1.032531734518e+00       8.975911077482e+02 
       1.282739033831e+00       6.988671331872e+02 
       1.613855049170e+00       5.134418533100e+02 
       2.031710338607e+00       3.603406045938e+02 
       2.557771745403e+00       2.433563886125e+02 
       3.220043847848e+00       1.594332571204e+02 
       4.053795027148e+00       1.020725039556e+02 
       5.103425573881e+00       6.424643693635e+01 
       6.424832142159e+00       3.994097625256e+01 
       8.088384450276e+00       2.461023612765e+01 
       1.018267272481e+01       1.506700888957e+01 
