# Matter power spectrum P(k) at redshift z=1.5
# for k=1.95094e-07 to 12.3247 h/Mpc,
# number of wavenumbers equal to 140
#    1:k (h/Mpc)              2:P (Mpc/h)^3        
       1.950940780831e-07       2.790832075691e-01 
       2.456088925893e-07       3.504642356962e-01 
       3.092032762433e-07       4.401023678196e-01 
       3.892638618727e-07       5.526672178766e-01 
       4.900541676047e-07       6.940227453411e-01 
       6.169416447532e-07       8.715327325342e-01 
       7.766835141739e-07       1.094444393607e+00 
       9.777866129151e-07       1.374370098788e+00 
       1.230960414311e-06       1.725892308526e+00 
       1.549687346489e-06       2.167323230064e+00 
       1.950940780831e-06       2.721658769709e+00 
       2.456088925893e-06       3.417776471553e+00 
       3.092032762433e-06       4.291939845072e+00 
       3.892638618727e-06       5.389687435719e+00 
       4.900541676047e-06       6.768205027108e+00 
       6.169416447532e-06       8.499304512512e+00 
       7.766835141739e-06       1.067316453176e+01 
       9.777866129151e-06       1.340302757235e+01 
       1.230960414311e-05       1.683109790204e+01 
       1.549687346489e-05       2.113594691289e+01 
       1.950940780831e-05       2.654181036492e+01 
       2.456088925893e-05       3.333025924158e+01 
       3.092032762433e-05       4.185484706169e+01 
       3.892638618727e-05       5.255948640570e+01 
       4.900541676047e-05       6.600149159771e+01 
       6.169416447532e-05       8.288044740760e+01 
       7.766835141739e-05       1.040743275182e+02 
       9.777866129151e-05       1.306845856948e+02 
       1.230960414311e-04       1.640922563517e+02 
       1.549687346489e-04       2.060273759088e+02 
       1.950940780831e-04       2.586541570327e+02 
       2.456088925893e-04       3.246740935963e+02 
       3.092032762433e-04       4.074481635042e+02 
       3.892638618727e-04       5.111369768034e+02 
       4.900541676047e-04       6.408535395114e+02 
       6.169416447532e-04       8.028173327494e+02 
       7.766835141739e-04       1.004492088992e+03 
       9.777866129151e-04       1.254683551877e+03 
       1.230960414311e-03       1.563554164689e+03 
       1.549687346489e-03       1.942440777974e+03 
       1.950940780831e-03       2.403258622685e+03 
       2.456088925893e-03       2.957375814963e+03 
       3.092032762433e-03       3.613764508170e+03 
       3.892638618727e-03       4.376146958120e+03 
       4.900541676047e-03       5.229416247542e+03 
       6.169416447532e-03       6.166588212671e+03 
       7.766835141739e-03       7.137152413403e+03 
       9.777866129151e-03       8.065269852313e+03 
       1.230960414311e-02       8.836099594495e+03 
       1.549687346442e-02       9.296991802629e+03 
       1.950940638581e-02       9.284602996876e+03 
       2.456027860859e-02       8.702856617001e+03 
       3.086734428482e-02       7.657488173989e+03 
       3.779017446988e-02       6.616924581019e+03 
       4.303495859336e-02       6.035042327702e+03 
       4.699216315583e-02       5.704912269527e+03 
       5.035663680179e-02       5.475449585635e+03 
       5.340997545164e-02       5.290269905757e+03 
       5.628521839452e-02       5.123001863551e+03 
       5.905591393001e-02       4.959302660536e+03 
       6.176756477654e-02       4.791040448051e+03 
       6.445077835286e-02       4.614031454427e+03 
       6.712753851218e-02       4.426996111389e+03 
       6.981450688314e-02       4.230945775622e+03 
       7.252489752837e-02       4.028693881721e+03 
       7.526960706651e-02       3.824365429114e+03 
       7.805792958749e-02       3.622864753683e+03 
       8.089802709406e-02       3.429308988176e+03 
       8.379724930969e-02       3.248461687164e+03 
       8.676235701006e-02       3.084209849383e+03 
       8.979968145733e-02       2.939126286031e+03 
       9.291524025018e-02       2.814149362016e+03 
       9.611482266306e-02       2.708402073055e+03 
       9.940405313419e-02       2.619173829354e+03 
       1.027884387975e-01       2.542098717956e+03 
       1.062734051827e-01       2.471573018214e+03 
       1.098643230526e-01       2.401447185607e+03 
       1.135665285857e-01       2.325973296451e+03 
       1.173853386028e-01       2.240890010707e+03 
       1.213260622005e-01       2.144405725584e+03 
       1.253940099306e-01       2.037767756541e+03 
       1.295945015150e-01       1.925144774575e+03 
       1.339328729950e-01       1.812733644163e+03 
       1.384144841505e-01       1.707266496496e+03 
       1.430447269889e-01       1.614316257357e+03 
       1.478290360801e-01       1.536860333044e+03 
       1.527729014975e-01       1.474465281726e+03 
       1.578818851171e-01       1.423309142228e+03 
       1.631616410181e-01       1.377145410311e+03 
       1.686179407274e-01       1.329161383569e+03 
       1.742567040552e-01       1.274336569758e+03 
       1.800840362850e-01       1.211426301314e+03 
       1.861062725162e-01       1.143506865840e+03 
       1.923300300158e-01       1.076559970272e+03 
       1.987622695365e-01       1.016666212811e+03 
       2.054103667001e-01       9.671981695792e+02 
       2.122821947593e-01       9.273549806585e+02 
       2.193862203426e-01       8.927051572624e+02 
       2.267316141900e-01       8.576020503615e+02 
       2.343283794233e-01       8.184108893867e+02 
       2.421875006128e-01       7.756185121909e+02 
       2.503211178457e-01       7.331816007354e+02 
       2.587427312569e-01       6.954441267276e+02 
       2.674674431400e-01       6.639579190592e+02 
       2.765122469747e-01       6.365787152321e+02 
       2.858963756908e-01       6.094774088608e+02 
       2.956417255513e-01       5.804915951053e+02 
       3.057733776301e-01       5.508281752593e+02 
       3.163202466803e-01       5.233730707912e+02 
       3.273158982628e-01       4.994298026273e+02 
       3.387995909701e-01       4.774923855773e+02 
       3.508176239821e-01       4.553477662437e+02 
       3.634251051599e-01       4.328390431004e+02 
       3.766883082394e-01       4.115953118827e+02 
       3.906878709625e-01       3.922599335194e+02 
       4.055232192921e-01       3.736212523624e+02 
       4.213188223056e-01       3.549084092386e+02 
       4.382332551165e-01       3.369005573986e+02 
       4.564727030108e-01       3.198448034303e+02 
       4.763117407048e-01       3.029408534865e+02 
       4.981265203958e-01       2.862579506119e+02 
       5.224501390016e-01       2.699208699892e+02 
       5.500698638972e-01       2.534391327753e+02 
       5.822084982538e-01       2.367881605917e+02 
       6.208874409848e-01       2.195164966452e+02 
       6.697129847812e-01       2.011700008309e+02 
       7.357066827353e-01       1.809329631112e+02 
       8.335397504547e-01       1.576597587383e+02 
       9.912943077294e-01       1.306741762337e+02 
       1.233128874719e+00       1.031190548187e+02 
       1.551599123587e+00       7.963251832130e+01 
       1.953337999526e+00       6.033838774542e+01 
       2.459106825356e+00       4.454801070261e+01 
       3.095832072751e+00       3.186614995570e+01 
       3.897421667034e+00       2.201481449924e+01 
       4.906563177106e+00       1.469250177481e+01 
       6.176997068233e+00       9.504996687318e+00 
       7.776378577776e+00       5.989700531308e+00 
       9.789880603294e+00       3.695179575319e+00 
       1.232472946992e+01       2.241966426584e+00 
