# Matter power spectrum P(k) at redshift z=0
# for k=2.31414e-07 to 11.6142 h/Mpc,
# number of wavenumbers equal to 139
#    1:k (h/Mpc)              2:P (Mpc/h)^3        
       2.314140177178e-07       9.226705414090e-01 
       2.913329875503e-07       1.152276367188e+00 
       3.667665013210e-07       1.439019418644e+00 
       4.617316687079e-07       1.797118248388e+00 
       5.812857311665e-07       2.244329684003e+00 
       7.317953784789e-07       2.802829324821e+00 
       9.212757982006e-07       3.500311148972e+00 
       1.159817513626e-06       4.371360756031e+00 
       1.460123740947e-06       5.459170339078e+00 
       1.838186881842e-06       6.817680423498e+00 
       2.314140177178e-06       8.514254570044e+00 
       2.913329875503e-06       1.063301966623e+01 
       3.667665013210e-06       1.327903742593e+01 
       4.617316687079e-06       1.658351392423e+01 
       5.812857311665e-06       2.071030544072e+01 
       7.317953784789e-06       2.586404312223e+01 
       9.212757982006e-06       3.230027915147e+01 
       1.159817513626e-05       4.033815717253e+01 
       1.460123740947e-05       5.037623452866e+01 
       1.838186881842e-05       6.291223946457e+01 
       2.314140177178e-05       7.856774015414e+01 
       2.913329875503e-05       9.811894323688e+01 
       3.667665013210e-05       1.225351380215e+02 
       4.617316687079e-05       1.530266709061e+02 
       5.812857311665e-05       1.911047859175e+02 
       7.317953784789e-05       2.386562139497e+02 
       9.212757982006e-05       2.980360429390e+02 
       1.159817513626e-04       3.721831482418e+02 
       1.460123740947e-04       4.647632735615e+02 
       1.838186881842e-04       5.803456377744e+02 
       2.314140177178e-04       7.246195149719e+02 
       2.913329875503e-04       9.046572593140e+02 
       3.667665013210e-04       1.129229228919e+03 
       4.617316687079e-04       1.409173474168e+03 
       5.812857311665e-04       1.757818642069e+03 
       7.317953784789e-04       2.191452060519e+03 
       9.212757982006e-04       2.729812011563e+03 
       1.159817513626e-03       3.396545386509e+03 
       1.460123740947e-03       4.219491207680e+03 
       1.838186881842e-03       5.230585771750e+03 
       2.314140177178e-03       6.465139934428e+03 
       2.913329875503e-03       7.960005338505e+03 
       3.667665013210e-03       9.750082396386e+03 
       4.617316687079e-03       1.177715767037e+04 
       5.812857311665e-03       1.417790524096e+04 
       7.317953784789e-03       1.687031263594e+04 
       9.212757982006e-03       1.977847657626e+04 
       1.159817513626e-02       2.275618582248e+04 
       1.460123740947e-02       2.556943364446e+04 
       1.838186880871e-02       2.789755067030e+04 
       2.314138712874e-02       2.938386707879e+04 
       2.912976069979e-02       2.977605279988e+04 
       3.648582837531e-02       2.917453647229e+04 
       4.366280754486e-02       2.832689589388e+04 
       4.881232500460e-02       2.780598299589e+04 
       5.288394330916e-02       2.747141608479e+04 
       5.643918583856e-02       2.722009196487e+04 
       5.971322217749e-02       2.700294806339e+04 
       6.282387360531e-02       2.679191469951e+04 
       6.583907544736e-02       2.656911789960e+04 
       6.880217048006e-02       2.632313188771e+04 
       7.174301373032e-02       2.604762049915e+04 
       7.468346477645e-02       2.574083329936e+04 
       7.764036002635e-02       2.540532709595e+04 
       8.062723751952e-02       2.504760665173e+04 
       8.365539492838e-02       2.467751576195e+04 
       8.673456839207e-02       2.430730409940e+04 
       8.987338445607e-02       2.395036457739e+04 
       9.307967028053e-02       2.361969584887e+04 
       9.636067199477e-02       2.332619282431e+04 
       9.972321158388e-02       2.307691434735e+04 
       1.031738014642e-01       2.287351554879e+04 
       1.067187291999e-01       2.271108526047e+04 
       1.103641206871e-01       2.257769009479e+04 
       1.141159875236e-01       2.245496620636e+04 
       1.179802626055e-01       2.232006822621e+04 
       1.219628268886e-01       2.214908345053e+04 
       1.260695295230e-01       2.192162507002e+04 
       1.303062030872e-01       2.162575109065e+04 
       1.346786753209e-01       2.126185163735e+04 
       1.391927785442e-01       2.084400772917e+04 
       1.438543578120e-01       2.039778539802e+04 
       1.486692787617e-01       1.995444899052e+04 
       1.536434360577e-01       1.954276908283e+04 
       1.587827632984e-01       1.918050470946e+04 
       1.640932452338e-01       1.886800441850e+04 
       1.695809331226e-01       1.858625968254e+04 
       1.752519640515e-01       1.830112576979e+04 
       1.811125850319e-01       1.797391844566e+04 
       1.871691826889e-01       1.757584518790e+04 
       1.934283193685e-01       1.710058362849e+04 
       1.998967765099e-01       1.656823961400e+04 
       2.065816061777e-01       1.601710696612e+04 
       2.134901917265e-01       1.548611389306e+04 
       2.206303186935e-01       1.499637543305e+04 
       2.280102571974e-01       1.454131536308e+04 
       2.356388573800e-01       1.409117016026e+04 
       2.435256597879e-01       1.361082631125e+04 
       2.516810230768e-01       1.308169523135e+04 
       2.601162720730e-01       1.251339212818e+04 
       2.688438700903e-01       1.193600171639e+04 
       2.778776205400e-01       1.137803488787e+04 
       2.872329043855e-01       1.084692059203e+04 
       2.969269619986e-01       1.032713320206e+04 
       3.069792306604e-01       9.797050250787e+03 
       3.174117525839e-01       9.249673174773e+03 
       3.282496732903e-01       8.697944019526e+03 
       3.395218570408e-01       8.160154021779e+03 
       3.512616556536e-01       7.642024184382e+03 
       3.635078807710e-01       7.135068638929e+03 
       3.763060495307e-01       6.631220769330e+03 
       3.897100029500e-01       6.134107278667e+03 
       4.037840404855e-01       5.652993697726e+03 
       4.186057821062e-01       5.190478318216e+03 
       4.342700760310e-01       4.742854657367e+03 
       4.508944428289e-01       4.309887329512e+03 
       4.686268335260e-01       3.895797228967e+03 
       4.876569723540e-01       3.502109867698e+03 
       5.082334333839e-01       3.128128403545e+03 
       5.306902324707e-01       2.775447791041e+03 
       5.554898942892e-01       2.445519606608e+03 
       5.832964841526e-01       2.138835964856e+03 
       6.151063484709e-01       1.856682001691e+03 
       6.524975854719e-01       1.600007693505e+03 
       6.981425510979e-01       1.369941442531e+03 
       7.569477512178e-01       1.167325739119e+03 
       8.387453078433e-01       9.912897104780e+02 
       9.641299069455e-01       8.331821978987e+02 
       1.167406256478e+00       6.683715065546e+02 
       1.462329984604e+00       4.932396049669e+02 
       1.840725730344e+00       3.411829579381e+02 
       2.317334778679e+00       2.259086021436e+02 
       2.917351638752e+00       1.452027088846e+02 
       3.672728113164e+00       9.150487685765e+01 
       4.623690752273e+00       5.692557634011e+01 
       5.820881784314e+00       3.511833014564e+01 
       7.328055997323e+00       2.154803539770e+01 
       9.225475914081e+00       1.317522578518e+01 
       1.161418606413e+01       8.037448694339e+00 
