# Matter power spectrum P(k) at redshift z=2
# for k=1.6869e-07 to 10.6566 h/Mpc,
# number of wavenumbers equal to 140
#    1:k (h/Mpc)              2:P (Mpc/h)^3        
       1.686904726574e-07       5.379816153324e-01 
       2.123687227560e-07       6.715795049500e-01 
       2.673563817478e-07       8.383539853203e-01 
       3.365817429876e-07       1.046543855438e+00 
       4.237313093931e-07       1.306433868223e+00 
       5.334461131677e-07       1.630862805779e+00 
       6.715688676897e-07       2.035857724708e+00 
       8.454551133044e-07       2.541425703068e+00 
       1.064364926670e-06       3.172542202455e+00 
       1.339956053608e-06       3.960384866336e+00 
       1.686904726574e-06       4.943873701436e+00 
       2.123687227560e-06       6.171593717241e+00 
       2.673563817478e-06       7.704194988998e+00 
       3.365817429876e-06       9.617388665330e+00 
       4.237313093931e-06       1.200568684779e+01 
       5.334461131677e-06       1.498707095982e+01 
       6.715688676897e-06       1.870881890266e+01 
       8.454551133044e-06       2.335477831101e+01 
       1.064364926670e-05       2.915444400513e+01 
       1.339956053608e-05       3.639428581862e+01 
       1.686904726574e-05       4.543188179808e+01 
       2.123687227560e-05       5.671354600266e+01 
       2.673563817478e-05       7.079630388151e+01 
       3.365817429876e-05       8.837526563535e+01 
       4.237313093931e-05       1.103176803345e+02 
       5.334461131677e-05       1.377052158030e+02 
       6.715688676897e-05       1.718862831367e+02 
       8.454551133044e-05       2.145404599227e+02 
       1.064364926670e-04       2.677571579230e+02 
       1.339956053608e-04       3.341304072649e+02 
       1.686904726574e-04       4.168705720258e+02 
       2.123687227560e-04       5.199312193067e+02 
       2.673563817478e-04       6.481440330771e+02 
       3.365817429876e-04       8.073450434678e+02 
       4.237313093931e-04       1.004460585267e+03 
       5.334461131677e-04       1.247503868747e+03 
       6.715688676897e-04       1.545423439463e+03 
       8.454551133044e-04       1.907757083620e+03 
       1.064364926670e-03       2.344049292878e+03 
       1.339956053608e-03       2.862845769254e+03 
       1.686904726574e-03       3.469815935621e+03 
       2.123687227560e-03       4.164980940432e+03 
       2.673563817478e-03       4.939622168236e+03 
       3.365817429876e-03       5.772772761150e+03 
       4.237313093931e-03       6.627728317281e+03 
       5.334461131677e-03       7.446812127729e+03 
       6.715688676897e-03       8.161586221510e+03 
       8.454551133044e-03       8.680206537563e+03 
       1.064364926670e-02       8.902539425126e+03 
       1.339956053607e-02       8.731625843617e+03 
       1.686904723539e-02       8.102757102709e+03 
       2.123683858996e-02       7.036872809680e+03 
       2.672929849698e-02       5.706379956461e+03 
       3.338171286133e-02       4.467718155981e+03 
       3.947187262084e-02       3.734996857769e+03 
       4.383193100042e-02       3.380741314679e+03 
       4.734696502521e-02       3.155517245569e+03 
       5.044810854313e-02       2.979278710766e+03 
       5.332066003509e-02       2.822725331733e+03 
       5.605978168339e-02       2.673150278551e+03 
       5.872131887362e-02       2.525053051833e+03 
       6.134136886892e-02       2.376758156935e+03 
       6.394505086661e-02       2.228855889269e+03 
       6.655091094608e-02       2.083287894053e+03 
       6.917333425868e-02       1.942691328626e+03 
       7.182395791010e-02       1.809874494337e+03 
       7.451254414986e-02       1.687388049481e+03 
       7.724754407122e-02       1.577191645742e+03 
       8.003647480279e-02       1.480420830603e+03 
       8.288617949547e-02       1.397254309375e+03 
       8.580301095564e-02       1.326875301713e+03 
       8.879296394977e-02       1.267522420580e+03 
       9.186177203483e-02       1.216630557544e+03 
       9.501497926628e-02       1.171073883130e+03 
       9.825799373369e-02       1.127521393898e+03 
       1.015961277187e-01       1.082894771172e+03 
       1.050346278763e-01       1.034874174574e+03 
       1.085786979251e-01       9.823432952571e+02 
       1.122335157269e-01       9.256349755869e+02 
       1.160042462301e-01       8.664604236818e+02 
       1.198960514836e-01       8.074920483679e+02 
       1.239140987503e-01       7.516904104585e+02 
       1.280635676353e-01       7.015603972862e+02 
       1.323496570666e-01       6.585411403199e+02 
       1.367775929238e-01       6.226789712789e+02 
       1.413526370792e-01       5.926508170230e+02 
       1.460800985974e-01       5.661421088376e+02 
       1.509653478291e-01       5.405258325567e+02 
       1.560138341237e-01       5.136933676565e+02 
       1.612311078855e-01       4.847582909963e+02 
       1.666228476936e-01       4.543064673248e+02 
       1.721948932204e-01       4.240225273603e+02 
       1.779532847024e-01       3.958467091419e+02 
       1.839043097668e-01       3.710785737221e+02 
       1.900545584857e-01       3.498545453118e+02 
       1.964109876532e-01       3.312126055796e+02 
       2.029809954438e-01       3.136828059364e+02 
       2.097725078595e-01       2.960987296230e+02 
       2.167940787010e-01       2.781774471185e+02 
       2.240550052530e-01       2.605095683083e+02 
       2.315654624753e-01       2.439913523485e+02 
       2.393366592874e-01       2.291387684055e+02 
       2.473810215947e-01       2.157806391467e+02 
       2.557124080944e-01       2.033019163451e+02 
       2.643463667649e-01       1.911824159445e+02 
       2.733004424277e-01       1.793596592955e+02 
       2.825945491439e-01       1.681260261374e+02 
       2.922514258201e-01       1.577273984184e+02 
       3.022971997970e-01       1.481036439872e+02 
       3.127620921926e-01       1.390046903524e+02 
       3.236813116308e-01       1.302804608594e+02 
       3.350962016660e-01       1.219786407620e+02 
       3.470557348532e-01       1.141770346493e+02 
       3.596184881276e-01       1.068312858410e+02 
       3.728552984992e-01       9.984052009399e+01 
       3.868528997102e-01       9.317353572748e+01 
       4.017190053955e-01       8.684217744824e+01 
       4.175895798084e-01       8.081491852887e+01 
       4.346395130680e-01       7.504232589056e+01 
       4.530987711464e-01       6.950280945045e+01 
       4.732776867689e-01       6.416830338162e+01 
       4.956081894595e-01       5.899656377669e+01 
       5.207142647667e-01       5.394884932557e+01 
       5.495392447776e-01       4.897429569295e+01 
       5.835913043760e-01       4.400842023626e+01 
       6.254539168556e-01       3.896512789209e+01 
       6.799344892978e-01       3.372565654405e+01 
       7.567835492124e-01       2.813511417203e+01 
       8.762872827653e-01       2.211487516852e+01 
       1.069111556900e+00       1.618017659615e+01 
       1.341672492056e+00       1.153941409011e+01 
       1.688956288667e+00       8.331348922134e+00 
       2.126269418174e+00       6.083345514138e+00 
       2.676814602404e+00       4.461705980230e+00 
       3.369909925628e+00       3.262732961041e+00 
       4.242465240830e+00       2.361850588226e+00 
       5.340947300334e+00       1.681535679141e+00 
       6.723854279444e+00       1.171370329519e+00 
       8.464831017594e+00       7.956529765892e-01 
       1.065659087459e+01       5.261718390203e-01 
