# Matter power spectrum P(k) at redshift z=0
# for k=2.12519e-07 to 10.6631 h/Mpc,
# number of wavenumbers equal to 139
#    1:k (h/Mpc)              2:P (Mpc/h)^3        
       2.125194555907e-07       1.388838217141e+00 
       2.675461431437e-07       1.722985641971e+00 
       3.368206384312e-07       2.137527240260e+00 
       4.240320609378e-07       2.651805441425e+00 
       5.338247369300e-07       3.289816364088e+00 
       6.720455267655e-07       4.081329469756e+00 
       8.460551915277e-07       5.063276598114e+00 
       1.065120380395e-06       6.281475195801e+00 
       1.340907113499e-06       7.792766142202e+00 
       1.688102040039e-06       9.667665920140e+00 
       2.125194555907e-06       1.199365687278e+01 
       2.675461431437e-06       1.487926905808e+01 
       3.368206384312e-06       1.845914413256e+01 
       4.240320609378e-06       2.290031749339e+01 
       5.338247369300e-06       2.841001169973e+01 
       6.720455267655e-06       3.524530462005e+01 
       8.460551915277e-06       4.372512302413e+01 
       1.065120380395e-05       5.424512047773e+01 
       1.340907113499e-05       6.729613224313e+01 
       1.688102040039e-05       8.348706531525e+01 
       2.125194555907e-05       1.035732858650e+02 
       2.675461431437e-05       1.284918172087e+02 
       3.368206384312e-05       1.594049682666e+02 
       4.240320609378e-05       1.977543842580e+02 
       5.338247369300e-05       2.453279555154e+02 
       6.720455267655e-05       3.043425378135e+02 
       8.460551915277e-05       3.775460152722e+02 
       1.065120380395e-04       4.683428294558e+02 
       1.340907113499e-04       5.809476008281e+02 
       1.688102040039e-04       7.205716635181e+02 
       2.125194555907e-04       8.936468228892e+02 
       2.675461431437e-04       1.108088778824e+03 
       3.368206384312e-04       1.373598579396e+03 
       4.240320609378e-04       1.701993496431e+03 
       5.338247369300e-04       2.107549174416e+03 
       6.720455267655e-04       2.607323851413e+03 
       8.460551915277e-04       3.221416549428e+03 
       1.065120380395e-03       3.973051425925e+03 
       1.340907113499e-03       4.888251489053e+03 
       1.688102040039e-03       5.994797859729e+03 
       2.125194555907e-03       7.320188550810e+03 
       2.675461431437e-03       8.888042360012e+03 
       3.368206384312e-03       1.071257371391e+04 
       4.240320609378e-03       1.279076140211e+04 
       5.338247369300e-03       1.502278669633e+04 
       6.720455267655e-03       1.744129905493e+04 
       8.460551915277e-03       1.986664473827e+04 
       1.065120380395e-02       2.209161425596e+04 
       1.340907113499e-02       2.382563493037e+04 
       1.688102040016e-02       2.470827850790e+04 
       2.125194472728e-02       2.438122688169e+04 
       2.675419422978e-02       2.266624011791e+04 
       3.364043967129e-02       1.985161746571e+04 
       4.138760660502e-02       1.703935207286e+04 
       4.741497300609e-02       1.542738411519e+04 
       5.190505525144e-02       1.452056565085e+04 
       5.569102430843e-02       1.389032841661e+04 
       5.911156208046e-02       1.338171112348e+04 
       6.232401240346e-02       1.292492020662e+04 
       6.541429771069e-02       1.248319440360e+04 
       6.843510626508e-02       1.203630691637e+04 
       7.142163939351e-02       1.157421762610e+04 
       7.439904339451e-02       1.109414790158e+04 
       7.738629059843e-02       1.059887103934e+04 
       8.039836962149e-02       1.009537481430e+04 
       8.344759924185e-02       9.593560731190e+03 
       8.654445623177e-02       9.104880693121e+03 
       8.969811830918e-02       8.640936284371e+03 
       9.291683223295e-02       8.212128847949e+03 
       9.620817027751e-02       7.826465264105e+03 
       9.957921299295e-02       7.488606810841e+03 
       1.030366818124e-01       7.199221299390e+03 
       1.065870366286e-01       6.954677004048e+03 
       1.102365483319e-01       6.747127814977e+03 
       1.139913530928e-01       6.565073251558e+03 
       1.178574931259e-01       6.394508999551e+03 
       1.218409473327e-01       6.220744851904e+03 
       1.259476543438e-01       6.030816134228e+03 
       1.301835298942e-01       5.816124991022e+03 
       1.345544800739e-01       5.574635383724e+03 
       1.390664117403e-01       5.311801931663e+03 
       1.437252412078e-01       5.039634248216e+03 
       1.485369022173e-01       4.773896183100e+03 
       1.535073541252e-01       4.530149173085e+03 
       1.586425912008e-01       4.319773336105e+03 
       1.639486538997e-01       4.147031429640e+03 
       1.694316429592e-01       4.007853926807e+03 
       1.750977371526e-01       3.890683663714e+03 
       1.809532155312e-01       3.779527029603e+03 
       1.870044849782e-01       3.658945001710e+03 
       1.932581139063e-01       3.519694320068e+03 
       1.997208729442e-01       3.362554096026e+03 
       2.063997834959e-01       3.197919512671e+03 
       2.133021751197e-01       3.040816203083e+03 
       2.204357527761e-01       2.903784198079e+03 
       2.278086751534e-01       2.791249955487e+03 
       2.354296455036e-01       2.697927556524e+03 
       2.433080167419e-01       2.611902410991e+03 
       2.514539129940e-01       2.521243401408e+03 
       2.598783703610e-01       2.420882178646e+03 
       2.685935004454e-01       2.315199859716e+03 
       2.776126812100e-01       2.214055587050e+03 
       2.869507810970e-01       2.125203433920e+03 
       2.966244241352e-01       2.048949336734e+03 
       3.066523061632e-01       1.978823054053e+03 
       3.170555755262e-01       1.907487014181e+03 
       3.278582959934e-01       1.832961220623e+03 
       3.390880156876e-01       1.759414534093e+03 
       3.507764742396e-01       1.691883284516e+03 
       3.629604923171e-01       1.630844027165e+03 
       3.756831048301e-01       1.572462334522e+03 
       3.889950242389e-01       1.513685639777e+03 
       4.029565578527e-01       1.455577767691e+03 
       4.176401600561e-01       1.400688598555e+03 
       4.331338892501e-01       1.348872160235e+03 
       4.495461811774e-01       1.297996524832e+03 
       4.670125832389e-01       1.247627077570e+03 
       4.857054888852e-01       1.198837357374e+03 
       5.058486028637e-01       1.151264409668e+03 
       5.277391296137e-01       1.103874681925e+03 
       5.517830827555e-01       1.056757432492e+03 
       5.785539397768e-01       1.009502197275e+03 
       6.088951219090e-01       9.612888803417e+02 
       6.441100274040e-01       9.114374974310e+02 
       6.863398393139e-01       8.585812135793e+02 
       7.393757881122e-01       8.007223194286e+02 
       8.105400110262e-01       7.344175269398e+02 
       9.150764892512e-01       6.538962587280e+02 
       1.082873302291e+00       5.522276050802e+02 
       1.343424115919e+00       4.351506271274e+02 
       1.690004398537e+00       3.254281664042e+02 
       2.127572397139e+00       2.329592393550e+02 
       2.678454913651e+00       1.602072565087e+02 
       3.371974955126e+00       1.065329445095e+02 
       4.245064958942e+00       6.897854559575e+01 
       5.344220151529e+00       4.376006958102e+01 
       6.727974554983e+00       2.734009214495e+01 
       8.470018137172e+00       1.688942814677e+01 
       1.066312107124e+01       1.034741839730e+01 
