# Matter power spectrum P(k) at redshift z=0.5
# for k=2.21946e-07 to 11.1353 h/Mpc,
# number of wavenumbers equal to 139
#    1:k (h/Mpc)              2:P (Mpc/h)^3        
       2.219463265628e-07       3.468027663508e-01 
       2.794138705643e-07       4.344227423085e-01 
       3.517612220612e-07       5.441799698711e-01 
       4.428411413366e-07       6.816674418729e-01 
       5.575039662166e-07       8.538912245377e-01 
       7.018559102461e-07       1.069627471481e+00 
       8.835842408268e-07       1.339869636850e+00 
       1.112366654238e-06       1.678388676945e+00 
       1.400386648252e-06       2.102434786005e+00 
       1.762982337822e-06       2.633616424399e+00 
       2.219463265628e-06       3.299001428622e+00 
       2.794138705643e-06       4.132496310421e+00 
       3.517612220612e-06       5.176574019334e+00 
       4.428411413366e-06       6.484438194153e+00 
       5.575039662166e-06       8.122734146801e+00 
       7.018559102461e-06       1.017494465106e+01 
       8.835842408268e-06       1.274564342047e+01 
       1.112366654238e-05       1.596582271949e+01 
       1.400386648252e-05       1.999956598978e+01 
       1.762982337822e-05       2.505240430170e+01 
       2.219463265628e-05       3.138178007748e+01 
       2.794138705643e-05       3.931014655522e+01 
       3.517612220612e-05       4.924136111721e+01 
       4.428411413366e-05       6.168118922563e+01 
       5.575039662166e-05       7.726292691305e+01 
       7.018559102461e-05       9.677937458256e+01 
       8.835842408268e-05       1.212226475125e+02 
       1.112366654238e-04       1.518335690020e+02 
       1.400386648252e-04       1.901626105987e+02 
       1.762982337822e-04       2.381444154513e+02 
       2.219463265628e-04       2.981876631550e+02 
       2.794138705643e-04       3.732810578441e+02 
       3.517612220612e-04       4.671140295972e+02 
       4.428411413366e-04       5.842067901998e+02 
       5.575039662166e-04       7.300386376317e+02 
       7.018559102461e-04       9.111570992878e+02 
       8.835842408268e-04       1.135244688207e+03 
       1.112366654238e-03       1.411104918922e+03 
       1.400386648252e-03       1.748472654732e+03 
       1.762982337822e-03       2.157472336662e+03 
       2.219463265628e-03       2.647599832655e+03 
       2.794138705643e-03       3.226122813602e+03 
       3.517612220612e-03       3.895707240832e+03 
       4.428411413366e-03       4.651317887879e+03 
       5.575039662166e-03       5.476388365481e+03 
       7.018559102461e-03       6.322202097477e+03 
       8.835842408268e-03       7.163174483643e+03 
       1.112366654238e-02       7.914135048285e+03 
       1.400386648252e-02       8.480179340629e+03 
       1.762982337820e-02       8.752950915522e+03 
       2.219463251163e-02       8.632745090255e+03 
       2.794127114000e-02       8.074584036454e+03 
       3.515939324958e-02       7.154911979005e+03 
       4.370612788243e-02       6.145988559987e+03 
       5.099674847621e-02       5.469566433083e+03 
       5.626963080614e-02       5.073570153285e+03 
       6.060420513938e-02       4.787166662925e+03 
       6.446792337769e-02       4.549748915497e+03 
       6.806801425328e-02       4.336882155138e+03 
       7.151368061843e-02       4.137153397198e+03 
       7.487019597167e-02       3.945077870060e+03 
       7.818033500294e-02       3.758360506757e+03 
       8.147418747220e-02       3.576595987020e+03 
       8.477416794309e-02       3.400518386702e+03 
       8.809779361621e-02       3.231485272766e+03 
       9.145932751450e-02       3.071077141061e+03 
       9.487080212728e-02       2.920769330854e+03 
       9.834268456561e-02       2.781666310089e+03 
       1.018843240475e-01       2.654301403843e+03 
       1.055042617134e-01       2.538510032818e+03 
       1.092104502539e-01       2.433385840067e+03 
       1.130104126111e-01       2.337327966239e+03 
       1.169113583899e-01       2.248185501848e+03 
       1.209202702057e-01       2.163498050809e+03 
       1.250439682162e-01       2.080817323224e+03 
       1.292891585512e-01       1.998072945253e+03 
       1.336624697152e-01       1.913920349213e+03 
       1.381704799568e-01       1.827989975989e+03 
       1.428197378811e-01       1.740958205632e+03 
       1.476167781063e-01       1.654391462754e+03 
       1.525681334442e-01       1.570372570045e+03 
       1.576803448808e-01       1.490985603311e+03 
       1.629599704917e-01       1.417785685621e+03 
       1.684135943457e-01       1.351394720692e+03 
       1.740478363922e-01       1.291338704256e+03 
       1.798693642962e-01       1.236187485861e+03 
       1.858849081630e-01       1.183983035227e+03 
       1.921012790794e-01       1.132852211464e+03 
       1.985253923899e-01       1.081611467502e+03 
       2.051642966221e-01       1.030128593565e+03 
       2.120252089750e-01       9.792685015846e+02 
       2.191155583036e-01       9.304239366189e+02 
       2.264430365615e-01       8.848381009755e+02 
       2.340156597289e-01       8.430387966686e+02 
       2.418418393538e-01       8.046511276996e+02 
       2.499304659921e-01       7.686673505621e+02 
       2.582910060621e-01       7.340195129468e+02 
       2.669336139517e-01       7.001300597713e+02 
       2.758692616635e-01       6.671163077453e+02 
       2.851098888794e-01       6.355404566223e+02 
       2.946685771294e-01       6.059087411661e+02 
       3.045597528059e-01       5.782921365560e+02 
       3.147994251653e-01       5.523250542646e+02 
       3.254054673124e-01       5.275309990844e+02 
       3.363979506339e-01       5.036705370408e+02 
       3.477995464578e-01       4.808174480925e+02 
       3.596360132122e-01       4.591431214463e+02 
       3.719367935170e-01       4.386662296600e+02 
       3.847357542086e-01       4.192202441616e+02 
       3.980721143787e-01       4.006229590721e+02 
       4.119916238124e-01       3.828142672095e+02 
       4.265480794282e-01       3.658107486587e+02 
       4.418053047548e-01       3.495825812957e+02 
       4.578397741697e-01       3.340351748620e+02 
       4.747441514071e-01       3.190878962946e+02 
       4.926321511090e-01       3.047013373753e+02 
       5.116453591970e-01       2.908270252026e+02 
       5.319630291665e-01       2.773901360586e+02 
       5.538165339943e-01       2.643198588857e+02 
       5.775113493892e-01       2.515461151739e+02 
       6.034616984213e-01       2.389794644844e+02 
       6.322474503340e-01       2.265136334301e+02 
       6.647122082361e-01       2.140173735134e+02 
       7.021423449123e-01       2.013136888190e+02 
       7.466164695125e-01       1.881527109891e+02 
       8.017418578313e-01       1.741554399203e+02 
       8.743319525199e-01       1.587146592965e+02 
       9.783728240592e-01       1.408665834721e+02 
       1.142516013208e+00       1.194977282037e+02 
       1.404458335800e+00       9.552658884620e+01 
       1.764869747383e+00       7.350882228142e+01 
       2.221775132478e+00       5.516618771064e+01 
       2.797048922150e+00       4.019571032176e+01 
       3.521275965986e+00       2.831768135277e+01 
       4.433023795520e+00       1.926984682362e+01 
       5.580846307268e+00       1.269685740213e+01 
       7.025869235538e+00       8.136649768994e+00 
       8.845045320561e+00       5.096445278572e+00 
       1.113525232253e+01       3.134602905480e+00 
