# Matter power spectrum P(k) at redshift z=1.5
# for k=1.60924e-07 to 10.1651 h/Mpc,
# number of wavenumbers equal to 140
#    1:k (h/Mpc)              2:P (Mpc/h)^3        
       1.609238818975e-07       5.779851532044e-01 
       2.025911642854e-07       7.227143571834e-01 
       2.550471649238e-07       9.036841847025e-01 
       3.210853571287e-07       1.129969395392e+00 
       4.042225154443e-07       1.412917095141e+00 
       5.088859967122e-07       1.766715738122e+00 
       6.406495129671e-07       2.209106607742e+00 
       8.065299519279e-07       2.762273453869e+00 
       1.015361051855e-06       3.453954895952e+00 
       1.278263830327e-06       4.318835371309e+00 
       1.609238818975e-06       5.400284374101e+00 
       2.025911642854e-06       6.752531190276e+00 
       2.550471649238e-06       8.443384163894e+00 
       3.210853571287e-06       1.055763082086e+01 
       4.042225154443e-06       1.320128927737e+01 
       5.088859967122e-06       1.650692399607e+01 
       6.406495129671e-06       2.064029218109e+01 
       8.065299519279e-06       2.580865357599e+01 
       1.015361051855e-05       3.227115932731e+01 
       1.278263830327e-05       4.035183882645e+01 
       1.609238818975e-05       5.045583169873e+01 
       2.025911642854e-05       6.308967087834e+01 
       2.550471649238e-05       7.888661795755e+01 
       3.210853571287e-05       9.863828983450e+01 
       4.042225154443e-05       1.233341003620e+02 
       5.088859967122e-05       1.542103719479e+02 
       6.406495129671e-05       1.928113374965e+02 
       8.065299519279e-05       2.410646155038e+02 
       1.015361051855e-04       3.013740111415e+02 
       1.278263830327e-04       3.767324874415e+02 
       1.609238818975e-04       4.708575001920e+02 
       2.025911642854e-04       5.883489487758e+02 
       2.550471649238e-04       7.348657399336e+02 
       3.210853571287e-04       9.173091180584e+02 
       4.042225154443e-04       1.143988834402e+03 
       5.088859967122e-04       1.424734135193e+03 
       6.406495129671e-04       1.770902566244e+03 
       8.065299519279e-04       2.195237508211e+03 
       1.015361051855e-03       2.711482421443e+03 
       1.278263830327e-03       3.333468121319e+03 
       1.609238818975e-03       4.073244272830e+03 
       2.025911642854e-03       4.938223185997e+03 
       2.550471649238e-03       5.927331770420e+03 
       3.210853571287e-03       7.026033657156e+03 
       4.042225154443e-03       8.199429225106e+03 
       5.088859967122e-03       9.384875952514e+03 
       6.406495129671e-03       1.048351732190e+04 
       8.065299519279e-03       1.135234205156e+04 
       1.015361051855e-02       1.180064805012e+04 
       1.278263830326e-02       1.160425564913e+04 
       1.609238814112e-02       1.056694495945e+04 
       2.025906906124e-02       8.667117301706e+03 
       2.549670330479e-02       6.264987876922e+03 
       3.178995780979e-02       4.185342446620e+03 
       3.739042448317e-02       3.184133486205e+03 
       4.141073785669e-02       2.833023599186e+03 
       4.467781702261e-02       2.692121607720e+03 
       4.757236418596e-02       2.629129440721e+03 
       5.025999718924e-02       2.591834595249e+03 
       5.282666095429e-02       2.553270198702e+03 
       5.532316710859e-02       2.497707598954e+03 
       5.778254115351e-02       2.416315744869e+03 
       6.022786477684e-02       2.305620665845e+03 
       6.267624059552e-02       2.166745129547e+03 
       6.514097420775e-02       2.004693825888e+03 
       6.763285735266e-02       1.827414762443e+03 
       7.016096346731e-02       1.644600362984e+03 
       7.273316261570e-02       1.466345088131e+03 
       7.535646679163e-02       1.301861752677e+03 
       7.803726835109e-02       1.158472961959e+03 
       8.078150866795e-02       1.041028267537e+03 
       8.359479979031e-02       9.517670056969e+02 
       8.648251355848e-02       8.904976083377e+02 
       8.944984764467e-02       8.548703509392e+02 
       9.250187487739e-02       8.405460915013e+02 
       9.564358024810e-02       8.412307658252e+02 
       9.887988872547e-02       8.487892485836e+02 
       1.022156861668e-01       8.538236479728e+02 
       1.056558350616e-01       8.470317629149e+02 
       1.092051864722e-01       8.212785631231e+02 
       1.128685892922e-01       7.737588714096e+02 
       1.166508977807e-01       7.072481538111e+02 
       1.205569782232e-01       6.296023396375e+02 
       1.245917155076e-01       5.514541373869e+02 
       1.287600203562e-01       4.830400891935e+02 
       1.330668379316e-01       4.315498465252e+02 
       1.375171585172e-01       3.998737191713e+02 
       1.421160309614e-01       3.865542008696e+02 
       1.468685795671e-01       3.861965047010e+02 
       1.517800251057e-01       3.902028761870e+02 
       1.568557106339e-01       3.886644418889e+02 
       1.621011328028e-01       3.739221212693e+02 
       1.675219793719e-01       3.443468103424e+02 
       1.731241736827e-01       3.054350904928e+02 
       1.789139269214e-01       2.667958253752e+02 
       1.848977991097e-01       2.370547453470e+02 
       1.910827699294e-01       2.201535554116e+02 
       1.974763207168e-01       2.144069782903e+02 
       2.040865292835e-01       2.135217730867e+02 
       2.109221796550e-01       2.093977264373e+02 
       2.179928893892e-01       1.967846427610e+02 
       2.253092579077e-01       1.769602916825e+02 
       2.328830402776e-01       1.564507503753e+02 
       2.407273522223e-01       1.416321633521e+02 
       2.488569139159e-01       1.342874158606e+02 
       2.572883425067e-01       1.309771810630e+02 
       2.660405065430e-01       1.259576184398e+02 
       2.751349599038e-01       1.162065983538e+02 
       2.845964789825e-01       1.041620235080e+02 
       2.944537355253e-01       9.455228031639e+01 
       3.047401498991e-01       8.911420420098e+01 
       3.154949875697e-01       8.517979192374e+01 
       3.267647882358e-01       7.928180401745e+01 
       3.386052573737e-01       7.167528878284e+01 
       3.510838122071e-01       6.538889000603e+01 
       3.642830726481e-01       6.123775591142e+01 
       3.783057478887e-01       5.693189037317e+01 
       3.932816374642e-01       5.154804843201e+01 
       4.093779298431e-01       4.691067895012e+01 
       4.268148161730e-01       4.319256484434e+01 
       4.458900025458e-01       3.896493113693e+01 
       4.670187874592e-01       3.499687792567e+01 
       4.908027869244e-01       3.139731268703e+01 
       5.181545960488e-01       2.763073658970e+01 
       5.505393562546e-01       2.408719771625e+01 
       5.904797100180e-01       2.047796633603e+01 
       6.426976824430e-01       1.680685262258e+01 
       7.168181567881e-01       1.300816080709e+01 
       8.327657044513e-01       9.116636697195e+00 
       1.019170767702e+00       5.613336275593e+00 
       1.279774165729e+00       3.224542040883e+00 
       1.611064092652e+00       1.827145428229e+00 
       2.028209170507e+00       1.028053460778e+00 
       2.553364064939e+00       5.747917863716e-01 
       3.214494906913e+00       3.195138139361e-01 
       4.046809324396e+00       1.766688626524e-01 
       5.094631095168e+00       9.720838087337e-02 
       6.413760549424e+00       5.324519196993e-02 
       8.074446140832e+00       2.904207064160e-02 
       1.016512543286e+01       1.577828935685e-02 
