# Matter power spectrum P(k) at redshift z=2.5
# for k=2.33008e-07 to 11.6922 h/Mpc,
# number of wavenumbers equal to 139
#    1:k (h/Mpc)              2:P (Mpc/h)^3        
       2.330077139611e-07       5.653308477513e-02 
       2.933393322498e-07       7.094351190960e-02 
       3.692923396479e-07       8.902719354456e-02 
       4.649115107637e-07       1.117204516496e-01 
       5.852889151361e-07       1.401982788772e-01 
       7.368350885062e-07       1.759351766038e-01 
       9.276204172221e-07       2.207815001594e-01 
       1.167804915740e-06       2.770592650506e-01 
       1.470179284443e-06       3.476823741066e-01 
       1.850846061079e-06       4.363074906526e-01 
       2.330077139611e-06       5.475233698047e-01 
       2.933393322498e-06       6.870884490481e-01 
       3.692923396479e-06       8.622290014175e-01 
       4.649115107637e-06       1.082013285065e+00 
       5.852889151361e-06       1.357821059816e+00 
       7.368350885062e-06       1.703932775154e+00 
       9.276204172221e-06       2.138268922729e+00 
       1.167804915740e-05       2.683317814247e+00 
       1.470179284443e-05       3.367299771290e+00 
       1.850846061079e-05       4.225627916488e+00 
       2.330077139611e-05       5.302741011419e+00 
       2.933393322498e-05       6.654402875676e+00 
       3.692923396479e-05       8.350586704372e+00 
       4.649115107637e-05       1.047909216683e+01 
       5.852889151361e-05       1.315007967635e+01 
       7.368350885062e-05       1.650175081435e+01 
       9.276204172221e-05       2.070745765239e+01 
       1.167804915740e-04       2.598458639204e+01 
       1.470179284443e-04       3.260563069501e+01 
       1.850846061079e-04       4.091194021336e+01 
       2.330077139611e-04       5.133068479759e+01 
       2.933393322498e-04       6.439558156677e+01 
       3.692923396479e-04       8.077182932660e+01 
       4.649115107637e-04       1.012853796566e+02 
       5.852889151361e-04       1.269560056249e+02 
       7.368350885062e-04       1.590324891110e+02 
       9.276204172221e-04       1.990267206811e+02 
       1.167804915740e-03       2.487420447951e+02 
       1.470179284443e-03       3.102897131670e+02 
       1.850846061079e-03       3.860812346576e+02 
       2.330077139611e-03       4.787603695011e+02 
       2.933393322498e-03       5.910347595323e+02 
       3.692923396479e-03       7.253580749561e+02 
       4.649115107637e-03       8.827281685977e+02 
       5.852889151361e-03       1.064356455330e+03 
       7.368350885062e-03       1.267191053113e+03 
       9.276204172221e-03       1.484357134435e+03 
       1.167804915740e-02       1.702689027977e+03 
       1.470179284443e-02       1.900674885570e+03 
       1.850846061028e-02       2.047623726405e+03 
       2.330076982155e-02       2.107296870869e+03 
       2.933324368929e-02       2.051383566858e+03 
       3.686842289900e-02       1.886257181265e+03 
       4.516599678479e-02       1.692740921993e+03 
       5.147139430832e-02       1.572987497051e+03 
       5.622124637420e-02       1.500429594280e+03 
       6.025560497340e-02       1.447591431304e+03 
       6.391490334832e-02       1.403682658072e+03 
       6.735964727076e-02       1.363521531535e+03 
       7.067843653225e-02       1.324224573735e+03 
       7.392602642806e-02       1.284109482158e+03 
       7.713921756506e-02       1.242264639519e+03 
       8.034442444086e-02       1.198351369421e+03 
       8.356165555013e-02       1.152491618378e+03 
       8.680677176608e-02       1.105180581839e+03 
       9.009284696336e-02       1.057199130410e+03 
       9.343102832492e-02       1.009516270561e+03 
       9.683110222775e-02       9.631803375933e+02 
       1.003018788054e-01       9.192048707127e+02 
       1.038514604254e-01       8.784560048458e+02 
       1.074874333102e-01       8.415512811184e+02 
       1.112170067496e-01       8.087782102195e+02 
       1.150471156370e-01       7.800412712003e+02 
       1.189844967431e-01       7.548451478495e+02 
       1.230357458179e-01       7.323237383786e+02 
       1.272073604772e-01       7.113245586334e+02 
       1.315057724425e-01       6.905535842106e+02 
       1.359373717862e-01       6.687755915420e+02 
       1.405085252214e-01       6.450448524673e+02 
       1.452255900739e-01       6.189193505182e+02 
       1.500949252987e-01       5.905956066664e+02 
       1.551229007332e-01       5.609072370841e+02 
       1.603159056593e-01       5.311614935462e+02 
       1.656803576783e-01       5.028373547947e+02 
       1.712227128561e-01       4.772176227104e+02 
       1.769494780687e-01       4.550513031179e+02 
       1.828672264577e-01       4.363376246281e+02 
       1.889826168969e-01       4.202984683748e+02 
       1.953024183600e-01       4.055751784296e+02 
       2.018335400790e-01       3.906383240369e+02 
       2.085830683865e-01       3.743175148673e+02 
       2.155583111572e-01       3.562592476270e+02 
       2.227668508024e-01       3.370832415514e+02 
       2.302166068438e-01       3.181102854988e+02 
       2.379159092084e-01       3.007545775265e+02 
       2.458735835613e-01       2.858660516421e+02 
       2.540990502431e-01       2.733414612509e+02 
       2.626024387299e-01       2.622012324730e+02 
       2.713947200131e-01       2.511283522906e+02 
       2.804878599370e-01       2.392243628529e+02 
       2.898949973883e-01       2.265339583077e+02 
       2.996306523601e-01       2.139472549505e+02 
       3.097109704070e-01       2.025113375857e+02 
       3.201540119915e-01       1.926554253583e+02 
       3.309800978644e-01       1.839149613526e+02 
       3.422122251863e-01       1.753703200146e+02 
       3.538765739417e-01       1.664556563057e+02 
       3.660031298740e-01       1.574163928637e+02 
       3.786264594908e-01       1.489525249275e+02 
       3.917866859044e-01       1.414217391200e+02 
       4.055307333015e-01       1.344818731262e+02 
       4.199139357393e-01       1.275697822496e+02 
       4.350021476411e-01       1.206101043491e+02 
       4.508745569433e-01       1.140037034020e+02 
       4.676275010491e-01       1.079381329242e+02 
       4.853797444991e-01       1.021145359281e+02 
       5.042799385238e-01       9.631314780792e+01 
       5.245174262406e-01       9.072541258751e+01 
       5.463383374082e-01       8.543160937066e+01 
       5.700703442882e-01       8.021882536159e+01 
       5.961621830520e-01       7.509308225104e+01 
       6.252495517541e-01       7.009721470738e+01 
       6.582707555130e-01       6.509538938185e+01 
       6.966822720331e-01       6.008331089163e+01 
       7.428899059300e-01       5.494325180718e+01 
       8.011817174371e-01       4.956476015161e+01 
       8.798983605211e-01       4.375591132468e+01 
       9.964604062942e-01       3.728086460201e+01 
       1.184320725783e+00       3.012211121045e+01 
       1.472783877869e+00       2.328396882923e+01 
       1.853103828602e+00       1.787546393355e+01 
       2.332907345777e+00       1.369114372479e+01 
       2.936956314909e+00       1.037592370342e+01 
       3.697408938161e+00       7.721042146806e+00 
       4.654762070046e+00       5.606659724281e+00 
       5.859998255837e+00       3.954627060042e+00 
       7.377300717342e+00       2.701761029937e+00 
       9.287471343509e+00       1.787215380570e+00 
       1.169223368565e+01       1.147498830035e+00 
