# Matter power spectrum P(k) at redshift z=0
# for k=2.28531e-07 to 11.4685 h/Mpc,
# number of wavenumbers equal to 139
#    1:k (h/Mpc)              2:P (Mpc/h)^3        
       2.285310737651e-07       5.893510769874e-01 
       2.877035761474e-07       7.373336956043e-01 
       3.621973430761e-07       9.224738865185e-01 
       4.559794392828e-07       1.154101699146e+00 
       5.740441033687e-07       1.443889903490e+00 
       7.226787092215e-07       1.806442233566e+00 
       9.097985916016e-07       2.260029334364e+00 
       1.145368566582e-06       2.827509500667e+00 
       1.441933594340e-06       3.537480606583e+00 
       1.815286844034e-06       4.425721275573e+00 
       2.285310737651e-06       5.536993914205e+00 
       2.877035761474e-06       6.927300467928e+00 
       3.621973430761e-06       8.666704563700e+00 
       4.559794392828e-06       1.084286223807e+01 
       5.740441033687e-06       1.356543913110e+01 
       7.226787092215e-06       1.697163666007e+01 
       9.097985916016e-06       2.123310547785e+01 
       1.145368566582e-05       2.656459425592e+01 
       1.441933594340e-05       3.323476892730e+01 
       1.815286844034e-05       4.157974620475e+01 
       2.285310737651e-05       5.202002058099e+01 
       2.877035761474e-05       6.508163226764e+01 
       3.621973430761e-05       8.142263180390e+01 
       4.559794392828e-05       1.018661531884e+02 
       5.740441033688e-05       1.274417191091e+02 
       7.226787092215e-05       1.594367747240e+02 
       9.097985916016e-05       1.994608794852e+02 
       1.145368566582e-04       2.495254637337e+02 
       1.441933594340e-04       3.121425306152e+02 
       1.815286844034e-04       3.904460480257e+02 
       2.285310737651e-04       4.883398222152e+02 
       2.877035761474e-04       6.106750221388e+02 
       3.621973430761e-04       7.634587373629e+02 
       4.559794392828e-04       9.540915374470e+02 
       5.740441033688e-04       1.191626928761e+03 
       7.226787092215e-04       1.487039108141e+03 
       9.097985916016e-04       1.853473662680e+03 
       1.145368566582e-03       2.306420570977e+03 
       1.441933594340e-03       2.863673700152e+03 
       1.815286844034e-03       3.544896050101e+03 
       2.285310737651e-03       4.370607157461e+03 
       2.877035761474e-03       5.360244626045e+03 
       3.621973430761e-03       6.528966117376e+03 
       4.559794392828e-03       7.882876233030e+03 
       5.740441033688e-03       9.361643484007e+03 
       7.226787092215e-03       1.100818978187e+04 
       9.097985916016e-03       1.271778164070e+04 
       1.145368566582e-02       1.437452501111e+04 
       1.441933594340e-02       1.581147264611e+04 
       1.815286843949e-02       1.681714847995e+04 
       2.285310504028e-02       1.717201439119e+04 
       2.876943994085e-02       1.673666384264e+04 
       3.614569818477e-02       1.559543474932e+04 
       4.412085195343e-02       1.427826748267e+04 
       5.008674399441e-02       1.341713520160e+04 
       5.462051694102e-02       1.283962783154e+04 
       5.849217151160e-02       1.238274736323e+04 
       6.201416102188e-02       1.198262403047e+04 
       6.533546409176e-02       1.160952822622e+04 
       6.853899012799e-02       1.124800586129e+04 
       7.167628131629e-02       1.089003245827e+04 
       7.478213586945e-02       1.053215591109e+04 
       7.788162212309e-02       1.017405326477e+04 
       8.099378665282e-02       9.817622914977e+03 
       8.413376703670e-02       9.466270064075e+03 
       8.731406895335e-02       9.124250341989e+03 
       9.054537584698e-02       8.796028641288e+03 
       9.383708267993e-02       8.485657817142e+03 
       9.719765932137e-02       8.196206634269e+03 
       1.006349046249e-01       7.929279030556e+03 
       1.041561279931e-01       7.684672793178e+03 
       1.077682814127e-01       7.460227780560e+03 
       1.114780567734e-01       7.251914961155e+03 
       1.152919582976e-01       7.054209543786e+03 
       1.192163567791e-01       6.860768506682e+03 
       1.232575303244e-01       6.665380950038e+03 
       1.274216949806e-01       6.463077202629e+03 
       1.317150277684e-01       6.251185164175e+03 
       1.361436840669e-01       6.030051411048e+03 
       1.407138109091e-01       5.803152426263e+03 
       1.454315574974e-01       5.576442092786e+03 
       1.503030840797e-01       5.356996967891e+03 
       1.553345702195e-01       5.151254567404e+03 
       1.605322234273e-01       4.963298503520e+03 
       1.659022890771e-01       4.793674426239e+03 
       1.714510625038e-01       4.639129371473e+03 
       1.771849041644e-01       4.493480055162e+03 
       1.831102587299e-01       4.349524988201e+03 
       1.892336789700e-01       4.201512432644e+03 
       1.955618552904e-01       4.047273552696e+03 
       2.021016517879e-01       3.889021061017e+03 
       2.088601497083e-01       3.732267083497e+03 
       2.158446992348e-01       3.583230709532e+03 
       2.230629806032e-01       3.445944523482e+03 
       2.305230756575e-01       3.320484304219e+03 
       2.382335511323e-01       3.203222289913e+03 
       2.462035551927e-01       3.089013872000e+03 
       2.544429291143e-01       2.974158138421e+03 
       2.629623364521e-01       2.858361878602e+03 
       2.717734126825e-01       2.744411303367e+03 
       2.808889391412e-01       2.635815449752e+03 
       2.903230461944e-01       2.534202507436e+03 
       3.000914520457e-01       2.438402948270e+03 
       3.102117455379e-01       2.345779962252e+03 
       3.207037239079e-01       2.254543247716e+03 
       3.315897999662e-01       2.164978089950e+03 
       3.428954979496e-01       2.078591860278e+03 
       3.546500638810e-01       1.996266681237e+03 
       3.668872254830e-01       1.917424935932e+03 
       3.796461497478e-01       1.840917320537e+03 
       3.929726651077e-01       1.766328667813e+03 
       4.069208427884e-01       1.694073426466e+03 
       4.215550732751e-01       1.624420868241e+03 
       4.369528369722e-01       1.556999476363e+03 
       4.532084668319e-01       1.491354092233e+03 
       4.704383589131e-01       1.427418956349e+03 
       4.887883476486e-01       1.365168382699e+03 
       5.084444063478e-01       1.304305691429e+03 
       5.296486157090e-01       1.244529399437e+03 
       5.527237783493e-01       1.185612325112e+03 
       5.781128130330e-01       1.127185129658e+03 
       6.064446336740e-01       1.068778451208e+03 
       6.386501620399e-01       1.009793999006e+03 
       6.761794610940e-01       9.493543083786e+02 
       7.214380685976e-01       8.861528052568e+02 
       7.787358267850e-01       8.180924960980e+02 
       8.565015871817e-01       7.416771242913e+02 
       9.723744561410e-01       6.512369539587e+02 
       1.159597164469e+00       5.409452108866e+02 
       1.444422563308e+00       4.193391974512e+02 
       1.817635776431e+00       3.077593991292e+02 
       2.288259401975e+00       2.152522609167e+02 
       2.880747893788e+00       1.445223926505e+02 
       3.626646728459e+00       9.401619687469e+01 
       4.565677726057e+00       5.975202446406e+01 
       5.747847711396e+00       3.734628942306e+01 
       7.236111546999e+00       2.306865720330e+01 
       9.109724709094e+00       1.413217812778e+01 
       1.146846393073e+01       8.607619911700e+00 
