# Matter power spectrum P(k) at redshift z=0
# for k=2.36491e-07 to 11.8648 h/Mpc,
# number of wavenumbers equal to 139
#    1:k (h/Mpc)              2:P (Mpc/h)^3        
       2.364912130759e-07       1.160057941490e+00 
       2.977247978073e-07       1.437770872978e+00 
       3.748133136809e-07       1.781967097077e+00 
       4.718620052717e-07       2.208562430222e+00 
       5.940390692967e-07       2.737282866703e+00 
       7.478508799362e-07       3.392576718323e+00 
       9.414884769843e-07       4.204745115566e+00 
       1.185263768587e-06       5.211343144680e+00 
       1.492158677953e-06       6.458916407687e+00 
       1.878516478104e-06       8.005153303195e+00 
       2.364912130759e-06       9.921552541088e+00 
       2.977247978073e-06       1.229672922923e+01 
       3.748133136809e-06       1.524051238076e+01 
       4.718620052717e-06       1.888902326461e+01 
       5.940390692967e-06       2.341096932889e+01 
       7.478508799362e-06       2.901544454439e+01 
       9.414884769843e-06       3.596159649289e+01 
       1.185263768587e-05       4.457060648361e+01 
       1.492158677953e-05       5.524053524804e+01 
       1.878516478104e-05       6.846471788826e+01 
       2.364912130759e-05       8.485455319638e+01 
       2.977247978073e-05       1.051677303651e+02 
       3.748133136809e-05       1.303431772117e+02 
       4.718620052717e-05       1.615443045532e+02 
       5.940390692967e-05       2.002124653454e+02 
       7.478508799362e-05       2.481329422823e+02 
       9.414884769843e-05       3.075162065511e+02 
       1.185263768587e-04       3.810976070224e+02 
       1.492158677953e-04       4.722589479169e+02 
       1.878516478104e-04       5.851753866073e+02 
       2.364912130759e-04       7.249903559403e+02 
       2.977247978073e-04       8.980191920360e+02 
       3.748133136809e-04       1.111978071813e+03 
       4.718620052717e-04       1.376228214318e+03 
       5.940390692967e-04       1.702016626383e+03 
       7.478508799362e-04       2.102685271984e+03 
       9.414884769843e-04       2.593804494776e+03 
       1.185263768587e-03       3.193132699933e+03 
       1.492158677953e-03       3.920190052516e+03 
       1.878516478104e-03       4.795195430466e+03 
       2.364912130759e-03       5.837165739508e+03 
       2.977247978073e-03       7.060761457784e+03 
       3.748133136809e-03       8.471640153140e+03 
       4.718620052717e-03       1.006025920244e+04 
       5.940390692967e-03       1.179387255842e+04 
       7.478508799362e-03       1.353381281319e+04 
       9.414884769843e-03       1.528924018352e+04 
       1.185263768587e-02       1.685100208902e+04 
       1.492158677953e-02       1.800908396841e+04 
       1.878516478101e-02       1.851556118992e+04 
       2.364912112120e-02       1.813470871273e+04 
       2.977233749004e-02       1.675764130236e+04 
       3.746159097969e-02       1.458009786454e+04 
       4.652790108820e-02       1.230186042004e+04 
       5.418181715869e-02       1.089555788597e+04 
       5.973085726043e-02       1.013757087514e+04 
       6.430518756057e-02       9.624144533356e+03 
       6.838863080441e-02       9.214704705536e+03 
       7.219670569334e-02       8.850903258047e+03 
       7.584341476688e-02       8.504063339087e+03 
       7.939708523235e-02       8.159427810453e+03 
       8.290258412978e-02       7.810261170356e+03 
       8.639152398471e-02       7.455143001400e+03 
       8.988748504101e-02       7.096403079973e+03 
       9.340891629190e-02       6.738961510361e+03 
       9.697085406231e-02       6.389297576163e+03 
       1.005859938942e-01       6.054467022235e+03 
       1.042653877275e-01       5.741173973784e+03 
       1.080189133076e-01       5.454947462095e+03 
       1.118555993958e-01       5.199470424931e+03 
       1.157838564347e-01       4.976102786970e+03 
       1.198116432983e-01       4.783622965699e+03 
       1.239465896480e-01       4.618208828791e+03 
       1.281960867108e-01       4.473688314378e+03 
       1.325673551327e-01       4.342107795451e+03 
       1.370674959041e-01       4.214658882138e+03 
       1.417035286398e-01       4.082949445828e+03 
       1.464824203590e-01       3.940480296927e+03 
       1.514111071639e-01       3.784026218018e+03 
       1.564965107098e-01       3.614499773385e+03 
       1.617455510335e-01       3.436906972154e+03 
       1.671651570809e-01       3.259238358881e+03 
       1.727622761369e-01       3.090506641792e+03 
       1.785438832706e-01       2.938463106955e+03 
       1.845169918488e-01       2.807627130157e+03 
       1.906886661380e-01       2.698131040520e+03 
       1.970660369931e-01       2.605658383293e+03 
       2.036563216135e-01       2.522573137725e+03 
       2.104668483397e-01       2.440153579266e+03 
       2.175050874582e-01       2.351476060660e+03 
       2.247786889845e-01       2.253953280965e+03 
       2.322955284100e-01       2.150263322960e+03 
       2.400637614369e-01       2.046956240744e+03 
       2.480918887888e-01       1.951284611120e+03 
       2.563888322958e-01       1.867849434156e+03 
       2.649640236214e-01       1.796685321744e+03 
       2.738275072443e-01       1.733603681681e+03 
       2.829900596515e-01       1.672613769847e+03 
       2.924633271777e-01       1.609275379208e+03 
       3.022599855640e-01       1.543074430150e+03 
       3.123939251605e-01       1.477185239491e+03 
       3.228804668316e-01       1.415767703142e+03 
       3.337366151101e-01       1.360880642241e+03 
       3.449813571311e-01       1.311290818402e+03 
       3.566360185048e-01       1.263882296730e+03 
       3.687246908314e-01       1.216378936723e+03 
       3.812747503517e-01       1.169006108579e+03 
       3.943174938141e-01       1.123644062024e+03 
       4.078889267882e-01       1.081545418713e+03 
       4.220307525667e-01       1.042116076775e+03 
       4.367916283029e-01       1.003891573760e+03 
       4.522287820059e-01       9.662871627191e+02 
       4.684101240792e-01       9.299038867339e+02 
       4.854170477969e-01       8.952445968324e+02 
       5.033482071706e-01       8.618972806251e+02 
       5.223247099827e-01       8.292667852406e+02 
       5.424974073336e-01       7.973594265024e+02 
       5.640573705448e-01       7.662992357929e+02 
       5.872513584408e-01       7.357835620404e+02 
       6.124053649441e-01       7.055208712656e+02 
       6.399617653355e-01       6.753948504607e+02 
       6.705403934675e-01       6.450851915141e+02 
       7.050439745206e-01       6.141953489345e+02 
       7.448508734363e-01       5.822203549229e+02 
       7.921920248999e-01       5.483715293409e+02 
       8.509468625798e-01       5.114332387417e+02 
       9.284595959133e-01       4.693708174806e+02 
       1.039831088385e+00       4.187532426163e+02 
       1.215896780424e+00       3.549746256834e+02 
       1.496243164517e+00       2.794145471669e+02 
       1.880496108929e+00       2.072977695737e+02 
       2.367344017733e+00       1.472635113570e+02 
       2.980309316760e+00       1.005851313926e+02 
       3.751987133757e+00       6.645499759673e+01 
       4.723471947412e+00       4.275504969742e+01 
       5.946498866493e+00       2.694963556708e+01 
       7.486198534234e+00       1.672703012590e+01 
       9.424565572483e+00       1.026394174492e+01 
       1.186482509432e+01       6.245312851556e+00 
