# Matter power spectrum P(k) at redshift z=2
# for k=1.96293e-07 to 12.3998 h/Mpc,
# number of wavenumbers equal to 140
#    1:k (h/Mpc)              2:P (Mpc/h)^3        
       1.962927550905e-07       2.041823581589e-01 
       2.471179375346e-07       2.555925642355e-01 
       3.111030512724e-07       3.199471269693e-01 
       3.916555369336e-07       4.005052507437e-01 
       4.930651081155e-07       5.013467609355e-01 
       6.207321942757e-07       6.275787245844e-01 
       7.814555332924e-07       7.855940949749e-01 
       9.837942290490e-07       9.833954790213e-01 
       1.238523554926e-06       1.231000424198e+00 
       1.559208776402e-06       1.540948750649e+00 
       1.962927550905e-06       1.928937619917e+00 
       2.471179375346e-06       2.414616501994e+00 
       3.111030512724e-06       3.022582298012e+00 
       3.916555369336e-06       3.783625008160e+00 
       4.930651081155e-06       4.736287015431e+00 
       6.207321942757e-06       5.928814928271e+00 
       7.814555332924e-06       7.421602770297e+00 
       9.837942290490e-06       9.290250143215e+00 
       1.238523554926e-05       1.162939000556e+01 
       1.559208776402e-05       1.455747948477e+01 
       1.962927550905e-05       1.822279545436e+01 
       2.471179375346e-05       2.281093674448e+01 
       3.111030512724e-05       2.855420943496e+01 
       3.916555369336e-05       3.574336359360e+01 
       4.930651081156e-05       4.474226206961e+01 
       6.207321942757e-05       5.600619704006e+01 
       7.814555332924e-05       7.010472798986e+01 
       9.837942290490e-05       8.775009160281e+01 
       1.238523554926e-04       1.098324135190e+02 
       1.559208776402e-04       1.374630972090e+02 
       1.962927550905e-04       1.720277967284e+02 
       2.471179375346e-04       2.152501456087e+02 
       3.111030512724e-04       2.692666470688e+02 
       3.916555369336e-04       3.367114294900e+02 
       4.930651081156e-04       4.208064936853e+02 
       6.207321942757e-04       5.254485526340e+02 
       7.814555332924e-04       6.552786670949e+02 
       9.837942290490e-04       8.157174673212e+02 
       1.238523554926e-03       1.012942012249e+03 
       1.559208776402e-03       1.253743219298e+03 
       1.962927550905e-03       1.545119291794e+03 
       2.471179375346e-03       1.893481707103e+03 
       3.111030512724e-03       2.303453061824e+03 
       3.916555369336e-03       2.776049776725e+03 
       4.930651081156e-03       3.302814231162e+03 
       6.207321942757e-03       3.873710598663e+03 
       7.814555332924e-03       4.457421985974e+03 
       9.837942290490e-03       5.005857288780e+03 
       1.238523554926e-02       5.448133613298e+03 
       1.559208776370e-02       5.692210556549e+03 
       1.962927444378e-02       5.642202169554e+03 
       2.471129970236e-02       5.245760342346e+03 
       3.106464213886e-02       4.573513476871e+03 
       3.812382379422e-02       3.910895851653e+03 
       4.353717748109e-02       3.542057102663e+03 
       4.759654384534e-02       3.336955318932e+03 
       5.103441903265e-02       3.196166636505e+03 
       5.414780437644e-02       3.083332201639e+03 
       5.707590025996e-02       2.981761047253e+03 
       5.989521407237e-02       2.882509164101e+03 
       6.265288013002e-02       2.780578644121e+03 
       6.538050135876e-02       2.673449752466e+03 
       6.810071797653e-02       2.560404415275e+03 
       7.083065210998e-02       2.442127772960e+03 
       7.358385806642e-02       2.320392159849e+03 
       7.637149528248e-02       2.197744316124e+03 
       7.920306891747e-02       2.077171330338e+03 
       8.208691642796e-02       1.961752063805e+03 
       8.503053791377e-02       1.854314044894e+03 
       8.804082656211e-02       1.757123372136e+03 
       9.112423301615e-02       1.671630897916e+03 
       9.428688472859e-02       1.598292103480e+03 
       9.753467383612e-02       1.536471895047e+03 
       1.008733225103e-01       1.484446520562e+03 
       1.043084318742e-01       1.439522675768e+03 
       1.078455187389e-01       1.398299341141e+03 
       1.114900432205e-01       1.357092968629e+03 
       1.152474295070e-01       1.312511701883e+03 
       1.191230815229e-01       1.262102045235e+03 
       1.231223948855e-01       1.204920576837e+03 
       1.272507663209e-01       1.141842119792e+03 
       1.315136015500e-01       1.075450387326e+03 
       1.359163225614e-01       1.009470982952e+03 
       1.404643751217e-01       9.478674591896e+02 
       1.451632373385e-01       8.938435496981e+02 
       1.500184300654e-01       8.490214626954e+02 
       1.550355299213e-01       8.130005917407e+02 
       1.602201856904e-01       7.834144805892e+02 
       1.655781388557e-01       7.565393273495e+02 
       1.711152490237e-01       7.284138927697e+02 
       1.768375249974e-01       6.962187696934e+02 
       1.827511622718e-01       6.593875750323e+02 
       1.888625877627e-01       6.198436505543e+02 
       1.951785126351e-01       5.811050217323e+02 
       2.017059941979e-01       5.466340400045e+02 
       2.084525079758e-01       5.182479293157e+02 
       2.154260312800e-01       4.953443567776e+02 
       2.226351398950e-01       4.752940942190e+02 
       2.300891199003e-01       4.548832100570e+02 
       2.377980971852e-01       4.321491019502e+02 
       2.457731879350e-01       4.074965486867e+02 
       2.540266743153e-01       3.832230161570e+02 
       2.625722108396e-01       3.617329993001e+02 
       2.714250685694e-01       3.437907638557e+02 
       2.806024265233e-01       3.281077287068e+02 
       2.901237226613e-01       3.125477735206e+02 
       3.000110808846e-01       2.959891748000e+02 
       3.102898360962e-01       2.791735265418e+02 
       3.209891871922e-01       2.636856545688e+02 
       3.321430189400e-01       2.501717991818e+02 
       3.437909496581e-01       2.377574599932e+02 
       3.559796849911e-01       2.252598388439e+02 
       3.687647929796e-01       2.126464581634e+02 
       3.822130688312e-01       2.008000155515e+02 
       3.964057407545e-01       1.900237553045e+02 
       4.114429008631e-01       1.796543104930e+02 
       4.274497632276e-01       1.693095732745e+02 
       4.445857210372e-01       1.594095107232e+02 
       4.630578245550e-01       1.500624226152e+02 
       4.831414888849e-01       1.408528132855e+02 
       5.052135099309e-01       1.318285294847e+02 
       5.298070314554e-01       1.230488582285e+02 
       5.577078345122e-01       1.142702997338e+02 
       5.901334445009e-01       1.054904279383e+02 
       6.290904917866e-01       9.649848132739e+01 
       6.781459609214e-01       8.709976563561e+01 
       7.442181096996e-01       7.695329652040e+01 
       8.417391098258e-01       6.562996673871e+01 
       9.986697467562e-01       5.303432999682e+01 
       1.240760538948e+00       4.083807961324e+01 
       1.561049740986e+00       3.110385537740e+01 
       1.965232975080e+00       2.357668213979e+01 
       2.474081704605e+00       1.765703340878e+01 
       3.114684328774e+00       1.297711756435e+01 
       3.921155251211e+00       9.309828404717e+00 
       4.936441989340e+00       6.493869170289e+00 
       6.214612264227e+00       4.393838904190e+00 
       7.823733303884e+00       2.883282974737e+00 
       9.849496671359e+00       1.839211932277e+00 
       1.239978165296e+01       1.144926289911e+00 
