# Matter power spectrum P(k) at redshift z=2.5
# for k=1.74764e-07 to 11.0387 h/Mpc,
# number of wavenumbers equal to 140
#    1:k (h/Mpc)              2:P (Mpc/h)^3        
       1.747642307931e-07       2.094822546063e-01 
       2.200151312181e-07       2.626982859204e-01 
       2.769826396697e-07       3.294331041306e-01 
       3.487004837060e-07       4.131209675165e-01 
       4.389879000424e-07       5.180685593449e-01 
       5.526530228335e-07       6.496766150258e-01 
       6.957489343499e-07       8.147178504432e-01 
       8.758960136819e-07       1.021685493811e+00 
       1.102687749713e-06       1.281230356102e+00 
       1.388201629388e-06       1.606708932918e+00 
       1.747642307931e-06       2.014870739305e+00 
       2.200151312181e-06       2.526720249039e+00 
       2.769826396697e-06       3.168597788053e+00 
       3.487004837060e-06       3.973534990653e+00 
       4.389879000424e-06       4.982954551229e+00 
       5.526530228335e-06       6.248801696193e+00 
       6.957489343499e-06       7.836216966937e+00 
       8.758960136819e-06       9.826887667908e+00 
       1.102687749713e-05       1.232325007987e+01 
       1.388201629388e-05       1.545375793206e+01 
       1.747642307931e-05       1.937948680261e+01 
       2.200151312181e-05       2.430241131937e+01 
       2.769826396697e-05       3.047577533094e+01 
       3.487004837060e-05       3.821707704220e+01 
       4.389879000424e-05       4.792431432073e+01 
       5.526530228335e-05       6.009628048901e+01 
       6.957489343499e-05       7.535786451992e+01 
       8.758960136819e-05       9.449147890162e+01 
       1.102687749713e-04       1.184758805395e+02 
       1.388201629388e-04       1.485336936934e+02 
       1.747642307931e-04       1.861887443588e+02 
       2.200151312181e-04       2.333336011967e+02 
       2.769826396697e-04       2.923060248641e+02 
       3.487004837060e-04       3.659696667431e+02 
       4.389879000424e-04       4.577886279693e+02 
       5.526530228335e-04       5.718775141267e+02 
       6.957489343499e-04       7.130011934664e+02 
       8.758960136819e-04       8.864975736439e+02 
       1.102687749713e-03       1.098099698959e+03 
       1.388201629388e-03       1.353594416904e+03 
       1.747642307931e-03       1.658121578442e+03 
       2.200151312181e-03       2.014933033111e+03 
       2.769826396697e-03       2.423801486859e+03 
       3.487004837060e-03       2.879016158674e+03 
       4.389879000424e-03       3.366753930358e+03 
       5.526530228335e-03       3.861597788546e+03 
       6.957489343499e-03       4.326617890756e+03 
       8.758960136819e-03       4.707298881233e+03 
       1.102687749713e-02       4.933720330397e+03 
       1.388201629387e-02       4.925747378107e+03 
       1.747642299279e-02       4.613572354068e+03 
       2.200143876705e-02       3.984477813377e+03 
       2.768690373921e-02       3.150197839855e+03 
       3.445712227093e-02       2.390708260530e+03 
       4.032034747881e-02       1.995852899694e+03 
       4.454767258265e-02       1.829242959651e+03 
       4.800860749094e-02       1.739340376714e+03 
       5.108695511581e-02       1.677907103176e+03 
       5.395169815390e-02       1.625490188096e+03 
       5.669139750165e-02       1.572413242368e+03 
       5.935878127095e-02       1.513561419785e+03 
       6.198830151531e-02       1.446588560123e+03 
       6.460413716321e-02       1.371153492797e+03 
       6.722426517202e-02       1.288470568023e+03 
       6.986271189812e-02       1.200923598110e+03 
       7.253088204183e-02       1.111659026056e+03 
       7.523838511447e-02       1.024151221617e+03 
       7.799357171628e-02       9.417740531771e+02 
       8.080389390045e-02       8.674265800281e+02 
       8.367615443147e-02       8.032535231279e+02 
       8.661668334551e-02       7.504769583780e+02 
       8.963146545156e-02       7.093276465560e+02 
       9.272623381166e-02       6.790452624607e+02 
       9.590653905597e-02       6.579193852773e+02 
       9.917780117368e-02       6.433728094497e+02 
       1.025453483776e-01       6.321294229644e+02 
       1.060144463160e-01       6.205368157733e+02 
       1.095903200356e-01       6.050925233150e+02 
       1.132781705199e-01       5.831351968847e+02 
       1.170831872441e-01       5.535313479039e+02 
       1.210105579314e-01       5.170869942428e+02 
       1.250654765254e-01       4.764424360399e+02 
       1.292531502866e-01       4.353991141546e+02 
       1.335788068486e-01       3.978934712204e+02 
       1.380477020277e-01       3.669894490939e+02 
       1.426651291517e-01       3.441955039875e+02 
       1.474364306549e-01       3.291962965875e+02 
       1.523670126787e-01       3.199398362833e+02 
       1.574623634049e-01       3.130660855687e+02 
       1.627280758477e-01       3.047748431270e+02 
       1.681698758327e-01       2.921133549273e+02 
       1.737936558991e-01       2.742295157933e+02 
       1.796055158913e-01       2.527992237978e+02 
       1.856118110515e-01       2.311753390208e+02 
       1.918192085052e-01       2.127085514002e+02 
       1.982347531562e-01       1.992391244312e+02 
       2.048659441858e-01       1.904410319173e+02 
       2.117208236054e-01       1.841135848783e+02 
       2.188080786618e-01       1.773059829419e+02 
       2.261371603643e-01       1.679649268638e+02 
       2.337184210325e-01       1.561842704652e+02 
       2.415632745951e-01       1.439714110013e+02 
       2.496843844698e-01       1.336184173979e+02 
       2.580958853139e-01       1.260503237276e+02 
       2.668136468710e-01       1.203465396254e+02 
       2.758555907482e-01       1.146363215902e+02 
       2.852420744782e-01       1.077234163673e+02 
       2.949963620646e-01       1.000653962853e+02 
       3.051452069225e-01       9.306872667537e+01 
       3.157195825989e-01       8.749852091188e+01 
       3.267556102152e-01       8.277973855993e+01 
       3.382957513207e-01       7.785602782537e+01 
       3.503903641283e-01       7.252457677425e+01 
       3.630997654336e-01       6.750262017158e+01 
       3.764970090826e-01       6.320842976750e+01 
       3.906717005479e-01       5.919358605097e+01 
       4.057353441428e-01       5.504376571370e+01 
       4.218290163494e-01       5.104624576692e+01 
       4.391346740177e-01       4.741751711002e+01 
       4.578923349641e-01       4.386370883579e+01 
       4.784271160964e-01       4.035370882594e+01 
       5.011935672419e-01       3.702708869694e+01 
       5.268519514237e-01       3.372709341103e+01 
       5.564071613150e-01       3.047962319989e+01 
       5.914791599754e-01       2.722018152400e+01 
       6.348712143623e-01       2.390298391283e+01 
       6.918609044491e-01       2.043960298334e+01 
       7.732548115077e-01       1.673423879666e+01 
       9.012842538087e-01       1.277395596049e+01 
       1.106195606762e+00       9.001438152955e+00 
       1.389733043739e+00       6.191596462026e+00 
       1.749509718255e+00       4.310787087433e+00 
       2.202501989826e+00       3.036450191372e+00 
       2.772785724367e+00       2.151321780519e+00 
       3.490730409865e+00       1.522388675244e+00 
       4.394569218702e+00       1.068354294762e+00 
       5.532434863313e+00       7.387539987725e-01 
       6.964922838520e+00       5.009148716378e-01 
       8.768318352599e+00       3.321053867098e-01 
       1.103865879279e+01       2.151767653506e-01 
