# Matter power spectrum P(k) at redshift z=1.5
# for k=2.12159e-07 to 10.647 h/Mpc,
# number of wavenumbers equal to 139
#    1:k (h/Mpc)              2:P (Mpc/h)^3        
       2.121591077893e-07       2.135464612907e-01 
       2.670924921395e-07       2.674621791608e-01 
       3.362495256538e-07       3.349904129145e-01 
       4.233130725493e-07       4.195680189920e-01 
       5.329195841770e-07       5.254995831186e-01 
       6.709060069632e-07       6.581765028034e-01 
       8.446206210914e-07       8.243513821120e-01 
       1.063314363217e-06       1.032481705611e+00 
       1.338633472580e-06       1.293160280837e+00 
       1.685239695709e-06       1.619654357475e+00 
       2.121591077893e-06       2.028580857460e+00 
       2.670924921395e-06       2.540752081742e+00 
       3.362495256538e-06       3.182234925757e+00 
       4.233130725493e-06       3.985677502557e+00 
       5.329195841770e-06       4.991970661407e+00 
       6.709060069632e-06       6.252328912611e+00 
       8.446206210914e-06       7.830896565482e+00 
       1.063314363217e-05       9.808011494845e+00 
       1.338633472580e-05       1.228429224208e+01 
       1.685239695709e-05       1.538575561650e+01 
       2.121591077893e-05       1.927022360852e+01 
       2.670924921395e-05       2.413534240654e+01 
       3.362495256538e-05       3.022861513935e+01 
       4.233130725493e-05       3.785994602468e+01 
       5.329195841770e-05       4.741730878616e+01 
       6.709060069632e-05       5.938628608665e+01 
       8.446206210914e-05       7.437437438494e+01 
       1.063314363217e-04       9.314109393811e+01 
       1.338633472580e-04       1.166350494547e+02 
       1.685239695709e-04       1.460390737348e+02 
       2.121591077893e-04       1.828242991987e+02 
       2.670924921395e-04       2.288131588511e+02 
       3.362495256538e-04       2.862494618638e+02 
       4.233130725493e-04       3.578702141364e+02 
       5.329195841770e-04       4.469683396375e+02 
       6.709060069632e-04       5.574286515507e+02 
       8.446206210914e-04       6.937145940600e+02 
       1.063314363217e-03       8.607836413677e+02 
       1.338633472580e-03       1.063900452743e+03 
       1.685239695709e-03       1.308250987925e+03 
       2.121591077893e-03       1.598178365003e+03 
       2.670924921395e-03       1.936024926655e+03 
       3.362495256538e-03       2.320664449266e+03 
       4.233130725493e-03       2.745684506997e+03 
       5.329195841770e-03       3.197433357226e+03 
       6.709060069632e-03       3.650153190452e+03 
       8.446206210914e-03       4.076387861355e+03 
       1.063314363217e-02       4.431689994274e+03 
       1.338633472580e-02       4.666356272552e+03 
       1.685239695709e-02       4.728717464866e+03 
       2.121591075684e-02       4.576769378885e+03 
       2.670922109401e-02       4.199465542167e+03 
       3.361903391007e-02       3.645093968629e+03 
       4.204725540566e-02       3.045371074730e+03 
       4.999122636789e-02       2.616945419531e+03 
       5.567526936607e-02       2.378111516202e+03 
       6.021855660893e-02       2.213795353258e+03 
       6.420870368089e-02       2.081596237453e+03 
       6.789522653835e-02       1.965754092166e+03 
       7.140486267404e-02       1.859319501072e+03 
       7.481140621491e-02       1.759054106426e+03 
       7.816227921242e-02       1.663569021024e+03 
       8.149033128582e-02       1.572482533839e+03 
       8.481972562585e-02       1.485960704205e+03 
       8.816914524541e-02       1.404424824089e+03 
       9.155366316022e-02       1.328344832801e+03 
       9.498589432735e-02       1.258087685689e+03 
       9.847673725746e-02       1.193809310132e+03 
       1.020358691310e-01       1.135387086910e+03 
       1.056720864282e-01       1.082392826796e+03 
       1.093935451530e-01       1.034107012335e+03 
       1.132079336962e-01       9.895747846049e+02 
       1.171225992289e-01       9.477023055440e+02 
       1.211446412385e-01       9.073865610177e+02 
       1.252809813295e-01       8.676645528726e+02 
       1.295384155701e-01       8.278578285539e+02 
       1.339236538315e-01       7.876809903361e+02 
       1.384433493636e-01       7.472826635006e+02 
       1.431041210521e-01       7.071975648825e+02 
       1.479125702723e-01       6.682102529655e+02 
       1.528752939016e-01       6.311563036215e+02 
       1.579988948174e-01       5.967084549036e+02 
       1.632899910578e-01       5.652029925203e+02 
       1.687552247232e-01       5.365542781638e+02 
       1.744012716364e-01       5.102845711411e+02 
       1.802348527411e-01       4.856677989058e+02 
       1.862627481938e-01       4.619519069973e+02 
       1.924918150892e-01       4.385920539087e+02 
       1.989290097477e-01       4.154094214907e+02 
       2.055814154884e-01       3.926075878607e+02 
       2.124562768111e-01       3.706342975972e+02 
       2.195610409215e-01       3.499494366226e+02 
       2.269034075639e-01       3.308076283147e+02 
       2.344913881787e-01       3.131568749756e+02 
       2.423333754957e-01       2.966953976276e+02 
       2.504382248178e-01       2.810476625701e+02 
       2.588153484627e-01       2.659570223236e+02 
       2.674748251322e-01       2.513838268343e+02 
       2.764275263953e-01       2.374584682376e+02 
       2.856852630385e-01       2.243365115140e+02 
       2.952609547888e-01       2.120665876662e+02 
       3.051688279164e-01       2.005612183032e+02 
       3.154246465492e-01       1.896736781777e+02 
       3.260459852775e-01       1.793019687202e+02 
       3.370525529611e-01       1.694304092299e+02 
       3.484665807634e-01       1.600871881611e+02 
       3.603132916596e-01       1.512760176663e+02 
       3.726214744274e-01       1.429531833595e+02 
       3.854241931237e-01       1.350604189422e+02 
       3.987596742752e-01       1.275629674020e+02 
       4.126724300359e-01       1.204489103657e+02 
       4.272146988131e-01       1.137028812475e+02 
       4.424483192242e-01       1.072953322967e+02 
       4.584472050219e-01       1.011959407955e+02 
       4.753006683666e-01       9.538346733111e+01 
       4.931179645778e-01       8.983862640214e+01 
       5.120346351015e-01       8.453749453939e+01 
       5.322215649179e-01       7.945541724638e+01 
       5.538982555659e-01       7.456908074525e+01 
       5.773528609027e-01       6.985302700734e+01 
       6.029734830116e-01       6.527864924013e+01 
       6.312990396378e-01       6.081421071598e+01 
       6.631058881559e-01       5.642155969508e+01 
       6.995636717579e-01       5.205380203723e+01 
       7.425344341978e-01       4.764866896599e+01 
       7.951911779932e-01       4.311976371204e+01 
       8.634025236895e-01       3.833922712352e+01 
       9.590080211722e-01       3.312230094736e+01 
       1.106734160788e+00       2.729487986167e+01 
       1.345754593953e+00       2.115430421455e+01 
       1.687582066562e+00       1.588271912249e+01 
       2.124350968281e+00       1.189286987182e+01 
       2.674398303402e+00       8.856053668393e+00 
       3.366867984390e+00       6.512578903344e+00 
       4.238635663705e+00       4.701172077929e+00 
       5.336126148376e+00       3.315616485269e+00 
       6.717784808729e+00       2.277230787664e+00 
       8.457190006674e+00       1.520284993679e+00 
       1.064697141177e+01       9.863396641355e-01 
