# Matter power spectrum P(k) at redshift z=1
# for k=2.40638e-07 to 12.0756 h/Mpc,
# number of wavenumbers equal to 139
#    1:k (h/Mpc)              2:P (Mpc/h)^3        
       2.406381888657e-07       1.734041749580e-01 
       3.029455310111e-07       2.167651942332e-01 
       3.813858273794e-07       2.709689626448e-01 
       4.801363097860e-07       3.387267911774e-01 
       6.044558015147e-07       4.234279742865e-01 
       7.609647688333e-07       5.293093247944e-01 
       9.579978849643e-07       6.616671019632e-01 
       1.206047881827e-06       8.271219334539e-01 
       1.518324326272e-06       1.033949982548e+00 
       1.911457077689e-06       1.292496925497e+00 
       2.406381888657e-06       1.615695444439e+00 
       3.029455310111e-06       2.019712119662e+00 
       3.813858273794e-06       2.524756074193e+00 
       4.801363097860e-06       3.156089810618e+00 
       6.044558015147e-06       3.945292783062e+00 
       7.609647688333e-06       4.931840874752e+00 
       9.579978849643e-06       6.165080711818e+00 
       1.206047881827e-05       7.706697429347e+00 
       1.518324326272e-05       9.633799037878e+00 
       1.911457077689e-05       1.204277111138e+01 
       2.406381888657e-05       1.505409348729e+01 
       3.029455310111e-05       1.881835768787e+01 
       3.813858273794e-05       2.352378166583e+01 
       4.801363097860e-05       2.940558906472e+01 
       6.044558015147e-05       3.675770493157e+01 
       7.609647688333e-05       4.594731897229e+01 
       9.579978849643e-05       5.743297778257e+01 
       1.206047881827e-04       7.178697951940e+01 
       1.518324326272e-04       8.972293383127e+01 
       1.911457077689e-04       1.121293662597e+02 
       2.406381888657e-04       1.401100906620e+02 
       3.029455310111e-04       1.750315690877e+02 
       3.813858273794e-04       2.185763475578e+02 
       4.801363097860e-04       2.727995536195e+02 
       6.044558015147e-04       3.401821868001e+02 
       7.609647688333e-04       4.236710758646e+02 
       9.579978849643e-04       5.266925440753e+02 
       1.206047881827e-03       6.531245520938e+02 
       1.518324326272e-03       8.071967203997e+02 
       1.911457077689e-03       9.932378257003e+02 
       2.406381888657e-03       1.215168389428e+03 
       3.029455310111e-03       1.475729670383e+03 
       3.813858273794e-03       1.775398381449e+03 
       4.801363097860e-03       2.110991014993e+03 
       6.044558015147e-03       2.473998407116e+03 
       7.609647688333e-03       2.845511789635e+03 
       9.579978849643e-03       3.206722890310e+03 
       1.206047881827e-02       3.521745184847e+03 
       1.518324326272e-02       3.748100076890e+03 
       1.911457077689e-02       3.837785715913e+03 
       2.406381885190e-02       3.746893052595e+03 
       3.029451241806e-02       3.456164543995e+03 
       3.813056945773e-02       3.001976440284e+03 
       4.765024096003e-02       2.506479286194e+03 
       5.647012085223e-02       2.167510034238e+03 
       6.278114992157e-02       1.986692750479e+03 
       6.785143687667e-02       1.865744949503e+03 
       7.231650977356e-02       1.769440604776e+03 
       7.644814953816e-02       1.684372434845e+03 
       8.038530951249e-02       1.604463664888e+03 
       8.420927445655e-02       1.526837437188e+03 
       8.797246092777e-02       1.450314154953e+03 
       9.171127667543e-02       1.374729246184e+03 
       9.545256152095e-02       1.300549235165e+03 
       9.921710687701e-02       1.228607999523e+03 
       1.030217137325e-01       1.159898176045e+03 
       1.068804627934e-01       1.095395834713e+03 
       1.108055335249e-01       1.035914048204e+03 
       1.148077516961e-01       9.819877148714e+02 
       1.188969664991e-01       9.337935854883e+02 
       1.230823167475e-01       8.911091931254e+02 
       1.273724225722e-01       8.533139549451e+02 
       1.317755256639e-01       8.194360137547e+02 
       1.362995931005e-01       7.882481851828e+02 
       1.409523948494e-01       7.584128746716e+02 
       1.457415618966e-01       7.286673120185e+02 
       1.506746299342e-01       6.980258161579e+02 
       1.557590722044e-01       6.659596561030e+02 
       1.610023242200e-01       6.325055678955e+02 
       1.664118024915e-01       5.982599004924e+02 
       1.719949190037e-01       5.642413681015e+02 
       1.777590929248e-01       5.316441124986e+02 
       1.837117608634e-01       5.015400393668e+02 
       1.898603868825e-01       4.746081830620e+02 
       1.962124734123e-01       4.509628846399e+02 
       2.027755741591e-01       4.301286316100e+02 
       2.095573100851e-01       4.111776013146e+02 
       2.165653895124e-01       3.930082374605e+02 
       2.238076333965e-01       3.746957249955e+02 
       2.312920068044e-01       3.557970275719e+02 
       2.390266576362e-01       3.364796665840e+02 
       2.470199636411e-01       3.174001184669e+02 
       2.552805888124e-01       2.993751402964e+02 
       2.638175503078e-01       2.829989086073e+02 
       2.726402971493e-01       2.683881847375e+02 
       2.817588021196e-01       2.551718906194e+02 
       2.911836685163e-01       2.427223875095e+02 
       3.009262537678e-01       2.305042558043e+02 
       3.109988123911e-01       2.183431617193e+02 
       3.214146614133e-01       2.064523460987e+02 
       3.321883722364e-01       1.952105468191e+02 
       3.433359940632e-01       1.848614539353e+02 
       3.548753155047e-01       1.753539486967e+02 
       3.668261729795e-01       1.664229118411e+02 
       3.792108171621e-01       1.578197982625e+02 
       3.920543522858e-01       1.494878825705e+02 
       4.053852678994e-01       1.415388894578e+02 
       4.192360892441e-01       1.340828015893e+02 
       4.336441815192e-01       1.270996302488e+02 
       4.486527560957e-01       1.204745316787e+02 
       4.643121450156e-01       1.141257250492e+02 
       4.806814366445e-01       1.080606952137e+02 
       4.978306045868e-01       1.023095541095e+02 
       5.158433211581e-01       9.685080546717e+01 
       5.348207379424e-01       9.163204219617e+01 
       5.548866599827e-01       8.662863760801e+01 
       5.761947736122e-01       8.183824295082e+01 
       5.989389776787e-01       7.724038483411e+01 
       6.233685404367e-01       7.280345513775e+01 
       6.498110088344e-01       6.850704503602e+01 
       6.787080469056e-01       6.432761629772e+01 
       7.106737891701e-01       6.023207732219e+01 
       7.465944188970e-01       5.618533816978e+01 
       7.878077591259e-01       5.214118273362e+01 
       8.364489490611e-01       4.803766511823e+01 
       8.961675985008e-01       4.378623131770e+01 
       9.737381271113e-01       3.925324254603e+01 
       1.082871013334e+00       3.424061645084e+01 
       1.252140274018e+00       2.854478540766e+01 
       1.525605160866e+00       2.242162827725e+01 
       1.913990845378e+00       1.703502063990e+01 
       2.409393972134e+00       1.282489615947e+01 
       3.033246320755e+00       9.533858230529e+00 
       3.818630872605e+00       6.954533112299e+00 
       4.807371443784e+00       4.953403341573e+00 
       6.052122074513e+00       3.432670381128e+00 
       7.619170274885e+00       2.309679306941e+00 
       9.591967075840e+00       1.508742905896e+00 
       1.207557110087e+01       9.588970272786e-01 
