# Matter power spectrum P(k) at redshift z=0.5
# for k=1.60052e-07 to 10.1098 h/Mpc,
# number of wavenumbers equal to 140
#    1:k (h/Mpc)              2:P (Mpc/h)^3        
       1.600522555787e-07       1.477380069222e+00 
       2.014938517630e-07       1.841968652773e+00 
       2.536657303047e-07       2.296530584480e+00 
       3.193462339819e-07       2.863269528949e+00 
       4.020330891206e-07       3.569868578147e+00 
       5.061296722760e-07       4.450842465166e+00 
       6.371795060913e-07       5.549223473181e+00 
       8.021614720928e-07       6.918663388406e+00 
       1.009861461580e-06       8.626054161407e+00 
       1.271340256374e-06       1.075479527336e+01 
       1.600522555787e-06       1.340886737622e+01 
       2.014938517630e-06       1.671791113278e+01 
       2.536657303047e-06       2.084355923437e+01 
       3.193462339819e-06       2.598733066581e+01 
       4.020330891206e-06       3.240047239543e+01 
       5.061296722760e-06       4.039622838030e+01 
       6.371795060913e-06       5.036513348410e+01 
       8.021614720928e-06       6.279407605005e+01 
       1.009861461580e-05       7.829005372322e+01 
       1.271340256374e-05       9.760976990885e+01 
       1.600522555787e-05       1.216964910257e+02 
       2.014938517630e-05       1.517259143370e+02 
       2.536657303047e-05       1.891631872026e+02 
       3.193462339819e-05       2.358336664330e+02 
       4.020330891206e-05       2.940104870835e+02 
       5.061296722760e-05       3.665224575905e+02 
       6.371795060913e-05       4.568860616775e+02 
       8.021614720928e-05       5.694651106338e+02 
       1.009861461580e-04       7.096602295309e+02 
       1.271340256374e-04       8.841267160882e+02 
       1.600522555787e-04       1.101011380562e+03 
       2.014938517630e-04       1.370183733836e+03 
       2.536657303047e-04       1.703410957656e+03 
       3.193462339819e-04       2.114389109782e+03 
       4.020330891206e-04       2.618506335635e+03 
       5.061296722760e-04       3.232210284598e+03 
       6.371795060913e-04       3.971908611434e+03 
       8.021614720928e-04       4.852326766128e+03 
       1.009861461580e-03       5.883841800687e+03 
       1.271340256374e-03       7.067968252043e+03 
       1.600522555787e-03       8.391585588559e+03 
       2.014938517630e-03       9.820934475428e+03 
       2.536657303047e-03       1.129652762039e+04 
       3.193462339819e-03       1.273155097539e+04 
       4.020330891206e-03       1.401343557735e+04 
       5.061296722760e-03       1.501264295166e+04 
       6.371795060913e-03       1.559656586309e+04 
       8.021614720928e-03       1.564587334996e+04 
       1.009861461580e-02       1.507012095906e+04 
       1.271340256374e-02       1.382312271436e+04 
       1.600522555786e-02       1.192631475725e+04 
       2.014938510444e-02       9.514287940360e+03 
       2.536650591553e-02       6.897833219104e+03 
       3.192365034572e-02       4.568468343185e+03 
       3.977989499490e-02       3.035037605164e+03 
       4.670784905416e-02       2.415340652456e+03 
       5.168745615164e-02       2.185463090783e+03 
       5.574426756296e-02       2.051801513195e+03 
       5.934325987193e-02       1.940157635765e+03 
       6.268751934213e-02       1.827123878968e+03 
       6.588278439580e-02       1.705330094186e+03 
       6.899171665801e-02       1.574395129093e+03 
       7.205511558199e-02       1.437507016172e+03 
       7.510153579000e-02       1.299601228139e+03 
       7.815215933017e-02       1.166124650713e+03 
       8.122348149687e-02       1.042125286338e+03 
       8.432889223609e-02       9.316216301680e+02 
       8.747965761855e-02       8.372484330873e+02 
       9.068555563695e-02       7.601538167881e+02 
       9.395530285637e-02       7.000836012798e+02 
       9.729684918623e-02       6.555646273924e+02 
       1.007175864854e-01       6.241092574642e+02 
       1.042244990921e-01       6.024114557353e+02 
       1.078242741243e-01       5.865694438634e+02 
       1.115233832340e-01       5.724135004902e+02 
       1.153281436762e-01       5.560008703036e+02 
       1.192447641303e-01       5.342519002348e+02 
       1.232793791401e-01       5.055765151198e+02 
       1.274380750067e-01       4.702532313675e+02 
       1.317269092838e-01       4.303513584095e+02 
       1.361519255683e-01       3.891483491502e+02 
       1.407191649767e-01       3.502158135097e+02 
       1.454346754968e-01       3.164942717598e+02 
       1.503045202748e-01       2.896498676759e+02 
       1.553347858154e-01       2.698350633600e+02 
       1.605315910196e-01       2.558048762898e+02 
       1.659010979536e-01       2.452976484257e+02 
       1.714495252201e-01       2.356429839819e+02 
       1.771831647919e-01       2.245468654108e+02 
       1.831084031559e-01       2.108430136048e+02 
       1.892317476141e-01       1.948480813805e+02 
       1.955598585862e-01       1.780677753469e+02 
       2.020995887745e-01       1.623801066504e+02 
       2.088580300773e-01       1.491503323275e+02 
       2.158425691963e-01       1.387176012563e+02 
       2.230609529701e-01       1.304158996870e+02 
       2.305213646099e-01       1.230372432024e+02 
       2.382325122187e-01       1.155029998222e+02 
       2.462037312671e-01       1.074040987856e+02 
       2.544451030994e-01       9.908820721911e+01 
       2.629675920865e-01       9.125800055779e+01 
       2.717832047652e-01       8.441349312788e+01 
       2.809051752593e-01       7.855135331023e+01 
       2.903481825461e-01       7.328031638792e+01 
       3.001286068059e-01       6.819264823741e+01 
       3.102648343258e-01       6.316591202374e+01 
       3.207776234188e-01       5.835855159713e+01 
       3.316905478749e-01       5.396203122231e+01 
       3.430305400129e-01       4.999322357314e+01 
       3.548285631164e-01       4.631758183754e+01 
       3.671204538974e-01       4.282044846400e+01 
       3.799479911738e-01       3.950382922509e+01 
       3.933602695599e-01       3.641881908253e+01 
       4.074154904868e-01       3.356352027080e+01 
       4.221833335452e-01       3.088768535757e+01 
       4.377481494680e-01       2.836245579488e+01 
       4.542133400799e-01       2.599221435391e+01 
       4.717074922164e-01       2.377170617505e+01 
       4.903931705415e-01       2.167978515378e+01 
       5.104798596936e-01       1.970253117429e+01 
       5.322435996880e-01       1.783430451581e+01 
       5.560578368909e-01       1.606029618919e+01 
       5.824439131759e-01       1.436808367945e+01 
       6.121577419040e-01       1.274488610897e+01 
       6.463472383185e-01       1.117563250446e+01 
       6.868578558260e-01       9.642079498981e+00 
       7.368723547005e-01       8.122847943762e+00 
       8.023598233645e-01       6.592567328774e+00 
       8.955059108905e-01       5.029295106708e+00 
       1.041487728673e+00       3.456433807580e+00 
       1.275852607626e+00       2.078201750671e+00 
       1.602367790963e+00       1.166831638114e+00 
       2.017175558072e+00       6.474449294455e-01 
       2.539473183098e+00       3.572691073328e-01 
       3.197007322516e+00       1.961689151108e-01 
       4.024793760008e+00       1.072201515672e-01 
       5.066915141705e+00       5.835613131710e-02 
       6.378868231297e+00       3.163675792576e-02 
       8.030519314866e+00       1.708866162076e-02 
       1.010982483539e+01       9.198749269501e-03 
