# Matter power spectrum P(k) at redshift z=1
# for k=2.18866e-07 to 10.9843 h/Mpc,
# number of wavenumbers equal to 139
#    1:k (h/Mpc)              2:P (Mpc/h)^3        
       2.188658271319e-07       2.855879309577e-01 
       2.755357515497e-07       3.584840602963e-01 
       3.468789594837e-07       4.499868780065e-01 
       4.366947369108e-07       5.648457288767e-01 
       5.497661014937e-07       7.090222245629e-01 
       6.921145157135e-07       8.899996738892e-01 
       8.713205517033e-07       1.117171494825e+00 
       1.096927584358e-06       1.402328767998e+00 
       1.380950010846e-06       1.760272237460e+00 
       1.738513061072e-06       2.209580523591e+00 
       2.188658271319e-06       2.773574419682e+00 
       2.755357515497e-06       3.481527319770e+00 
       3.468789594837e-06       4.370184601876e+00 
       4.366947369108e-06       5.485670815861e+00 
       5.497661014938e-06       6.885883649794e+00 
       6.921145157135e-06       8.643498895000e+00 
       8.713205517033e-06       1.084974230571e+01 
       1.096927584358e-05       1.361912398663e+01 
       1.380950010846e-05       1.709538075502e+01 
       1.738513061072e-05       2.145893434403e+01 
       2.188658271319e-05       2.693625143290e+01 
       2.755357515497e-05       3.381158909395e+01 
       3.468789594837e-05       4.244173083902e+01 
       4.366947369108e-05       5.327446930774e+01 
       5.497661014938e-05       6.687177737302e+01 
       6.921145157135e-05       8.393883559149e+01 
       8.713205517033e-05       1.053603537527e+02 
       1.096927584358e-04       1.322459357835e+02 
       1.380950010846e-04       1.659865752634e+02 
       1.738513061072e-04       2.083246916430e+02 
       2.188658271319e-04       2.614403333573e+02 
       2.755357515497e-04       3.280561056244e+02 
       3.468789594837e-04       4.115627257652e+02 
       4.366947369108e-04       5.161654425910e+02 
       5.497661014938e-04       6.470484912951e+02 
       6.921145157135e-04       8.105503685794e+02 
       8.713205517033e-04       1.014337700323e+03 
       1.096927584358e-03       1.267557894227e+03 
       1.380950010846e-03       1.580925480887e+03 
       1.738513061072e-03       1.966631712382e+03 
       2.188658271319e-03       2.437916028709e+03 
       2.755357515497e-03       3.008154149370e+03 
       3.468789594837e-03       3.689276505104e+03 
       4.366947369108e-03       4.476040567259e+03 
       5.497661014938e-03       5.387639901590e+03 
       6.921145157135e-03       6.400581057516e+03 
       8.713205517033e-03       7.478364006152e+03 
       1.096927584358e-02       8.553848918202e+03 
       1.380950010846e-02       9.520866192727e+03 
       1.738513060904e-02       1.023309205361e+04 
       2.188657887034e-02       1.052533118899e+04 
       2.755226673162e-02       1.027964485231e+04 
       3.459403706316e-02       9.547559832073e+03 
       4.200662871952e-02       8.727275813312e+03 
       4.745646461157e-02       8.219074332974e+03 
       5.164692670552e-02       7.887966453383e+03 
       5.525003500120e-02       7.632307203901e+03 
       5.854001024802e-02       7.410893169515e+03 
       6.164954023418e-02       7.203461595497e+03 
       6.465325466703e-02       6.998752698712e+03 
       6.759790762066e-02       6.790390883714e+03 
       7.051525238438e-02       6.575205088043e+03 
       7.342827348497e-02       6.352417588998e+03 
       7.635450426672e-02       6.123150045020e+03 
       7.930792740397e-02       5.890018613446e+03 
       8.230012868755e-02       5.656722991910e+03 
       8.534103109585e-02       5.427594856507e+03 
       8.843938012119e-02       5.207108395566e+03 
       9.160307498360e-02       4.999376550601e+03 
       9.483940067064e-02       4.807669791377e+03 
       9.815519402009e-02       4.633997088809e+03 
       1.015569646490e-01       4.478789931561e+03 
       1.050509841707e-01       4.340729846806e+03 
       1.086433526372e-01       4.216761453461e+03 
       1.123400483128e-01       4.102335561074e+03 
       1.161469650654e-01       3.991918289986e+03 
       1.200699404776e-01       3.879770764250e+03 
       1.241147769886e-01       3.760935669164e+03 
       1.282872578617e-01       3.632270616971e+03 
       1.325931594179e-01       3.493273702969e+03 
       1.370382607516e-01       3.346412992812e+03 
       1.416283519882e-01       3.196750841607e+03 
       1.463692420505e-01       3.050848214686e+03 
       1.512667668373e-01       2.915176163246e+03 
       1.563267986789e-01       2.794439013242e+03 
       1.615552579137e-01       2.690260004484e+03 
       1.669581274090e-01       2.600605453916e+03 
       1.725414708446e-01       2.520196873750e+03 
       1.783114555662e-01       2.441984512361e+03 
       1.842743808177e-01       2.359450967060e+03 
       1.904367121668e-01       2.269050266966e+03 
       1.968051229571e-01       2.171705902594e+03 
       2.033865436623e-01       2.072443631013e+03 
       2.101882200884e-01       1.978097751837e+03 
       2.172177814784e-01       1.894119138072e+03 
       2.244833197467e-01       1.822041513010e+03 
       2.319934813046e-01       1.758849353020e+03 
       2.397575732767e-01       1.698655560064e+03 
       2.477856863590e-01       1.636023836917e+03 
       2.560888371809e-01       1.569148295884e+03 
       2.646791338382e-01       1.500730434034e+03 
       2.735699693366e-01       1.435740938061e+03 
       2.827762490973e-01       1.377657835938e+03 
       2.923146605531e-01       1.326027709247e+03 
       3.022039953722e-01       1.277182036166e+03 
       3.124655382275e-01       1.227527667160e+03 
       3.231235406394e-01       1.176594587032e+03 
       3.342058047796e-01       1.126948065211e+03 
       3.457444110250e-01       1.081098457110e+03 
       3.577766356959e-01       1.038809359371e+03 
       3.703461236709e-01       9.977446772025e+02 
       3.835044074048e-01       9.564953013074e+02 
       3.973129040840e-01       9.160361496775e+02 
       4.118455841747e-01       8.777541133514e+02 
       4.271926009581e-01       8.412137692723e+02 
       4.434653254047e-01       8.051272282632e+02 
       4.608034865278e-01       7.695184623836e+02 
       4.793855537670e-01       7.350498262792e+02 
       4.994442696603e-01       7.012788304176e+02 
       5.212906619975e-01       6.676451935698e+02 
       5.453526038448e-01       6.343070510370e+02 
       5.722395533377e-01       6.008804882501e+02 
       6.028570938368e-01       5.669198582382e+02 
       6.386224919676e-01       5.319721873707e+02 
       6.819006075350e-01       4.951912996321e+02 
       7.369580634662e-01       4.553392946532e+02 
       8.121994269112e-01       4.104057783196e+02 
       9.252436576503e-01       3.574380743415e+02 
       1.108344859013e+00       2.948036654471e+02 
       1.383275370891e+00       2.303049534488e+02 
       1.740902900288e+00       1.737117132442e+02 
       2.191661815345e+00       1.259494461897e+02 
       2.759138745129e+00       8.734374866639e+01 
       3.473549880908e+00       5.813371341296e+01 
       4.372940214209e+00       3.742028421422e+01 
       5.505205559925e+00       2.347870122778e+01 
       6.930643176540e+00       1.445522806880e+01 
       8.725162815024e+00       8.778739052272e+00 
       1.098432918987e+01       5.279502173132e+00 
