# Matter power spectrum P(k) at redshift z=1
# for k=2.23531e-07 to 11.2165 h/Mpc,
# number of wavenumbers equal to 139
#    1:k (h/Mpc)              2:P (Mpc/h)^3        
       2.235314877440e-07       3.188705551903e-01 
       2.814094702570e-07       3.973419489192e-01 
       3.542735332261e-07       4.951245002973e-01 
       4.460039537045e-07       6.169705245375e-01 
       5.614857110792e-07       7.688018416992e-01 
       7.068686300370e-07       9.579975824275e-01 
       8.898948811536e-07       1.193752818712e+00 
       1.120311279710e-06       1.487525451509e+00 
       1.410388339146e-06       1.853593071908e+00 
       1.775573720650e-06       2.309746860106e+00 
       2.235314877440e-06       2.878156242428e+00 
       2.814094702570e-06       3.586446326271e+00 
       3.542735332261e-06       4.469040469159e+00 
       4.460039537045e-06       5.568833212433e+00 
       5.614857110792e-06       6.939274854675e+00 
       7.068686300370e-06       8.646968908538e+00 
       8.898948811537e-06       1.077490854731e+01 
       1.120311279710e-05       1.342650908231e+01 
       1.410388339146e-05       1.673063192417e+01 
       1.775573720650e-05       2.084784320772e+01 
       2.235314877440e-05       2.597820922933e+01 
       2.814094702570e-05       3.237100364266e+01 
       3.542735332261e-05       4.033679038003e+01 
       4.460039537045e-05       5.026245420005e+01 
       5.614857110792e-05       6.262987909007e+01 
       7.068686300370e-05       7.803912274027e+01 
       8.898948811537e-05       9.723709640708e+01 
       1.120311279710e-04       1.211529148989e+02 
       1.410388339146e-04       1.509411884379e+02 
       1.775573720650e-04       1.880344976721e+02 
       2.235314877440e-04       2.342059559835e+02 
       2.814094702570e-04       2.916418211922e+02 
       3.542735332261e-04       3.630221138953e+02 
       4.460039537045e-04       4.516035917707e+02 
       5.614857110792e-04       5.612940197376e+02 
       7.068686300370e-04       6.967005792134e+02 
       8.898948811537e-04       8.631313307867e+02 
       1.120311279710e-03       1.066525541479e+03 
       1.410388339146e-03       1.313262105547e+03 
       1.775573720650e-03       1.609712862425e+03 
       2.235314877440e-03       1.961386017890e+03 
       2.814094702570e-03       2.371667954879e+03 
       3.542735332261e-03       2.840091805151e+03 
       4.460039537045e-03       3.360176688463e+03 
       5.614857110792e-03       3.916917458999e+03 
       7.068686300370e-03       4.478544312233e+03 
       8.898948811537e-03       5.015347056330e+03 
       1.120311279710e-02       5.470513728334e+03 
       1.410388339146e-02       5.778932564868e+03 
       1.775573720649e-02       5.869190191318e+03 
       2.235314872940e-02       5.679268574728e+03 
       2.814089847280e-02       5.188584978561e+03 
       3.541842378754e-02       4.463907927738e+03 
       4.421866234567e-02       3.701364617640e+03 
       5.222619853878e-02       3.196674078159e+03 
       5.796130059582e-02       2.927427195434e+03 
       6.259293437167e-02       2.746058351780e+03 
       6.668296031489e-02       2.601108252467e+03 
       7.047348510878e-02       2.472908953350e+03 
       7.408912647694e-02       2.352549577882e+03 
       7.760313327543e-02       2.235839295510e+03 
       8.106290866169e-02       2.121091631175e+03 
       8.450147032507e-02       2.008109617009e+03 
       8.794321476735e-02       1.897610758915e+03 
       9.140707730525e-02       1.790831340205e+03 
       9.490838455300e-02       1.689215296679e+03 
       9.846000008489e-02       1.594155662913e+03 
       1.020730644523e-01       1.506782077868e+03 
       1.057574905868e-01       1.427797249612e+03 
       1.095223053982e-01       1.357367365978e+03 
       1.133758911280e-01       1.295071057938e+03 
       1.173261592843e-01       1.239910921260e+03 
       1.213806779652e-01       1.190392358311e+03 
       1.255467661623e-01       1.144673819824e+03 
       1.298315641718e-01       1.100786998719e+03 
       1.342420864134e-01       1.056912040771e+03 
       1.387852611273e-01       1.011671053043e+03 
       1.434679602195e-01       9.643800947165e+02 
       1.482970217267e-01       9.151883174024e+02 
       1.532792668449e-01       8.650450840740e+02 
       1.584215131093e-01       8.154770169906e+02 
       1.637305850833e-01       7.682143402228e+02 
       1.692133237613e-01       7.247578412742e+02 
       1.748765957939e-01       6.859999885704e+02 
       1.807273035828e-01       6.520006959370e+02 
       1.867723972548e-01       6.219804299542e+02 
       1.930188895018e-01       5.945465351539e+02 
       1.994738742557e-01       5.681133130957e+02 
       2.061445501577e-01       5.414073951302e+02 
       2.130382497769e-01       5.138844255636e+02 
       2.201624755304e-01       4.858738970828e+02 
       2.275249432760e-01       4.583633451239e+02 
       2.351336345736e-01       4.325059018924e+02 
       2.429968586756e-01       4.090825684862e+02 
       2.511233254031e-01       3.881742319364e+02 
       2.595222302212e-01       3.691907801424e+02 
       2.682033530506e-01       3.512305931650e+02 
       2.771771726768e-01       3.335763089602e+02 
       2.864549990577e-01       3.160441174498e+02 
       2.960491264324e-01       2.989761671318e+02 
       3.059730109287e-01       2.828999056549e+02 
       3.162414774299e-01       2.681144002121e+02 
       3.268709618552e-01       2.545026604954e+02 
       3.378797968671e-01       2.416792228576e+02 
       3.492885514784e-01       2.293176722805e+02 
       3.611204383379e-01       2.173688064719e+02 
       3.734018069433e-01       2.059965701838e+02 
       3.861627471529e-01       1.953357188636e+02 
       3.994378358552e-01       1.853365004287e+02 
       4.132670716048e-01       1.758362898784e+02 
       4.276970590993e-01       1.667340625650e+02 
       4.427825301831e-01       1.580470674675e+02 
       4.585883247734e-01       1.498092312882e+02 
       4.751920105370e-01       1.419813701282e+02 
       4.926874056599e-01       1.344918075988e+02 
       5.111894042068e-01       1.273104206723e+02 
       5.308407229014e-01       1.204309674940e+02 
       5.518215548211e-01       1.138204266261e+02 
       5.743637491278e-01       1.074349316282e+02 
       5.987722726888e-01       1.012452355028e+02 
       6.254588369748e-01       9.521470662893e+01 
       6.549967519741e-01       8.929542604448e+01 
       6.882147365694e-01       8.343476606950e+01 
       7.263665418770e-01       7.756309839279e+01 
       7.714584237997e-01       7.158635645913e+01 
       8.269308252118e-01       6.536907885215e+01 
       8.991939502983e-01       5.870526558619e+01 
       1.001263251305e+00       5.128592840447e+01 
       1.160191596614e+00       4.279134445383e+01 
       1.416449130692e+00       3.362015520282e+01 
       1.777808515366e+00       2.552975875160e+01 
       2.237992869468e+00       1.915625138415e+01 
       2.817465401942e+00       1.415192119634e+01 
       3.546978790821e+00       1.023501665890e+01 
       4.465381734859e+00       7.215270747415e+00 
       5.621582539376e+00       4.943575947408e+00 
       7.077153113318e+00       3.287827636777e+00 
       8.909607897515e+00       2.124563042789e+00 
       1.121653179130e+01       1.337964179856e+00 
