# Matter power spectrum P(k) at redshift z=1
# for k=2.30268e-07 to 11.5543 h/Mpc,
# number of wavenumbers equal to 139
#    1:k (h/Mpc)              2:P (Mpc/h)^3        
       2.302677217492e-07       3.798881664190e-01 
       2.898898864260e-07       4.720693078962e-01 
       3.649497446438e-07       5.866185132257e-01 
       4.594445075599e-07       7.289634683055e-01 
       5.784063658764e-07       9.058489048893e-01 
       7.281704723453e-07       1.125656186279e+00 
       9.167123117537e-07       1.398800441075e+00 
       1.154072424571e-06       1.738224062437e+00 
       1.452891102344e-06       2.160009955870e+00 
       1.829081529310e-06       2.684143592884e+00 
       2.302677217492e-06       3.335459975845e+00 
       2.898898864260e-06       4.144820382595e+00 
       3.649497446438e-06       5.150574642474e+00 
       4.594445075599e-06       6.400378217103e+00 
       5.784063658764e-06       7.953450163918e+00 
       7.281704723453e-06       9.883378924146e+00 
       9.167123117537e-06       1.228160879253e+01 
       1.154072424571e-05       1.526177208804e+01 
       1.452891102344e-05       1.896507195459e+01 
       1.829081529310e-05       2.356697014001e+01 
       2.302677217492e-05       2.928549530783e+01 
       2.898898864260e-05       3.639156285788e+01 
       3.649497446438e-05       4.522179000354e+01 
       4.594445075599e-05       5.619440297852e+01 
       5.784063658764e-05       6.982896977103e+01 
       7.281704723453e-05       8.677085352905e+01 
       9.167123117537e-05       1.078214670316e+02 
       1.154072424571e-04       1.339756090679e+02 
       1.452891102344e-04       1.664673544820e+02 
       1.829081529310e-04       2.068260981432e+02 
       2.302677217492e-04       2.569443120532e+02 
       2.898898864260e-04       3.191581703139e+02 
       3.649497446438e-04       3.963411172882e+02 
       4.594445075599e-04       4.920082949043e+02 
       5.784063658764e-04       6.104262204118e+02 
       7.281704723453e-04       7.567175647772e+02 
       9.167123117537e-04       9.369465009528e+02 
       1.154072424571e-03       1.158164335110e+03 
       1.452891102344e-03       1.428372364562e+03 
       1.829081529310e-03       1.756296524647e+03 
       2.302677217492e-03       2.150829782864e+03 
       2.898898864260e-03       2.620062925173e+03 
       3.649497446438e-03       3.169737879942e+03 
       4.594445075599e-03       3.800993302038e+03 
       5.784063658764e-03       4.495430175954e+03 
       7.281704723453e-03       5.252456240712e+03 
       9.167123117537e-03       6.028326689504e+03 
       1.154072424571e-02       6.765200489488e+03 
       1.452891102344e-02       7.379676053114e+03 
       1.829081529271e-02       7.765328028535e+03 
       2.302677088518e-02       7.811257002673e+03 
       2.898839540371e-02       7.450340909371e+03 
       3.644051236576e-02       6.740046317554e+03 
       4.471010955121e-02       5.974306947431e+03 
       5.104317831549e-02       5.502144892264e+03 
       5.579530649409e-02       5.210629418517e+03 
       5.982157474155e-02       4.992742222234e+03 
       6.346864254420e-02       4.808338102354e+03 
       6.689912304782e-02       4.639141938260e+03 
       7.020244751347e-02       4.475643123911e+03 
       7.343373717826e-02       4.312772612316e+03 
       7.662996281230e-02       4.148165664930e+03 
       7.981761745242e-02       3.981320129115e+03 
       8.301674160703e-02       3.813089364700e+03 
       8.624320296143e-02       3.645294745447e+03 
       8.951006780068e-02       3.480372379695e+03 
       9.282846709477e-02       3.321025347939e+03 
       9.620816561728e-02       3.169881279415e+03 
       9.965794838608e-02       3.029170610450e+03 
       1.031858902688e-01       2.900445908548e+03 
       1.067995483021e-01       2.784364670472e+03 
       1.105061013509e-01       2.680556644707e+03 
       1.143124529394e-01       2.587595832264e+03 
       1.182253077274e-01       2.503097815504e+03 
       1.222512287555e-01       2.423959468108e+03 
       1.263966804378e-01       2.346747424971e+03 
       1.306680608808e-01       2.268213091707e+03 
       1.350717261875e-01       2.185868983348e+03 
       1.396140087889e-01       2.098510494619e+03 
       1.443012314390e-01       2.006536160758e+03 
       1.491397182371e-01       1.911933028986e+03 
       1.541358038638e-01       1.817869312526e+03 
       1.592958421017e-01       1.727954282486e+03 
       1.646262146407e-01       1.645339369439e+03 
       1.701333411201e-01       1.571896459390e+03 
       1.758236913332e-01       1.507697636084e+03 
       1.817038005012e-01       1.450957635999e+03 
       1.877802885102e-01       1.398509634407e+03 
       1.940598839992e-01       1.346761952931e+03 
       2.005494541816e-01       1.292903524618e+03 
       2.072560412902e-01       1.235931141051e+03 
       2.141869065540e-01       1.177010198674e+03 
       2.213495826532e-01       1.118905880061e+03 
       2.287519356733e-01       1.064683461639e+03 
       2.364022376872e-01       1.016286618942e+03 
       2.443092512700e-01       9.736815635069e+02 
       2.524823274977e-01       9.349845390605e+02 
       2.609315193241e-01       8.975372437658e+02 
       2.696677127062e-01       8.594015247912e+02 
       2.787027784793e-01       8.204035023005e+02 
       2.880497488261e-01       7.820147657163e+02 
       2.977230233012e-01       7.461332401816e+02 
       3.077386108445e-01       7.136669021401e+02 
       3.181144161730e-01       6.839722388918e+02 
       3.288705815520e-01       6.555288251385e+02 
       3.400298984558e-01       6.272563355206e+02 
       3.516183084098e-01       5.993125506398e+02 
       3.636655188817e-01       5.726561876896e+02 
       3.762057692773e-01       5.478933883139e+02 
       3.892787951044e-01       5.246655688373e+02 
       4.029310571044e-01       5.021838067710e+02 
       4.172173295976e-01       4.801667453485e+02 
       4.322027832692e-01       4.589777936261e+02 
       4.479657600968e-01       4.388867082617e+02 
       4.646015355416e-01       4.196257013326e+02 
       4.822275189061e-01       4.008545602637e+02 
       5.009905989201e-01       3.826164477431e+02 
       5.210777761562e-01       3.649967398701e+02 
       5.427319873068e-01       3.477999733084e+02 
       5.662764217630e-01       3.308768346494e+02 
       5.921532985772e-01       3.141958342602e+02 
       6.209884388659e-01       2.975765015885e+02 
       6.537044106038e-01       2.808320087861e+02 
       6.917310518189e-01       2.637173624357e+02 
       7.374256605022e-01       2.458528818442e+02 
       7.949801787272e-01       2.266623115578e+02 
       8.725283291509e-01       2.052140196791e+02 
       9.870409513799e-01       1.800840456575e+02 
       1.171356756434e+00       1.500716657153e+02 
       1.455507209392e+00       1.180882364293e+02 
       1.831251262631e+00       8.985878671647e+01 
       2.305394779149e+00       6.633328923375e+01 
       2.902320040141e+00       4.722174786898e+01 
       3.653804451684e+00       3.234703930590e+01 
       4.599867273952e+00       2.137842049535e+01 
       5.790889802059e+00       1.370853932891e+01 
       7.290298328711e+00       8.580696013752e+00 
       9.177941825575e+00       5.271725387825e+00 
       1.155434419219e+01       3.193495091287e+00 
