# Matter power spectrum P(k) at redshift z=1.5
# for k=2.12261e-07 to 10.6505 h/Mpc,
# number of wavenumbers equal to 139
#    1:k (h/Mpc)              2:P (Mpc/h)^3        
       2.122610239488e-07       2.065174617351e-01 
       2.672207969826e-07       2.581943760684e-01 
       3.364110518813e-07       3.228024170410e-01 
       4.235164220218e-07       4.035773435494e-01 
       5.331755859954e-07       5.045645990231e-01 
       6.712282941578e-07       6.308219189259e-01 
       8.450263566305e-07       7.886726366974e-01 
       1.063825153998e-06       9.860223740820e-01 
       1.339276520074e-06       1.232754976459e+00 
       1.686049244540e-06       1.541227523098e+00 
       2.122610239488e-06       1.926889200708e+00 
       2.672207969826e-06       2.409055035554e+00 
       3.364110518813e-06       3.011873229578e+00 
       4.235164220218e-06       3.765534539790e+00 
       5.331755859954e-06       4.707784252986e+00 
       6.712282941578e-06       5.885812449769e+00 
       8.450263566305e-06       7.358617164263e+00 
       1.063825153998e-05       9.199958664802e+00 
       1.339276520074e-05       1.150205257010e+01 
       1.686049244540e-05       1.438018627147e+01 
       2.122610239488e-05       1.797848888083e+01 
       2.672207969826e-05       2.247714176377e+01 
       3.364110518813e-05       2.810138693876e+01 
       4.235164220218e-05       3.513277695883e+01 
       5.331755859954e-05       4.392321469900e+01 
       6.712282941578e-05       5.491245664731e+01 
       8.450263566305e-05       6.864989787025e+01 
       1.063825153998e-04       8.582161482401e+01 
       1.339276520074e-04       1.072837950912e+02 
       1.686049244540e-04       1.341037894396e+02 
       2.122610239488e-04       1.676099958477e+02 
       2.672207969826e-04       2.094514673854e+02 
       3.364110518813e-04       2.616672567827e+02 
       4.235164220218e-04       3.267636895699e+02 
       5.331755859954e-04       4.077946438129e+02 
       6.712282941578e-04       5.084356513436e+02 
       8.450263566305e-04       6.330384911111e+02 
       1.063825153998e-03       7.866499005275e+02 
       1.339276520074e-03       9.749675369272e+02 
       1.686049244540e-03       1.204161453358e+03 
       2.122610239488e-03       1.480427823141e+03 
       2.672207969826e-03       1.809200431330e+03 
       3.364110518813e-03       2.193974168219e+03 
       4.235164220218e-03       2.634595637437e+03 
       5.331755859954e-03       3.124947913073e+03 
       6.712282941578e-03       3.650069425821e+03 
       8.450263566305e-03       4.182935588768e+03 
       1.063825153998e-02       4.681268235353e+03 
       1.339276520074e-02       5.085697269634e+03 
       1.686049244512e-02       5.322454339603e+03 
       2.122610140372e-02       5.317349927926e+03 
       2.672160162333e-02       5.030008493986e+03 
       3.359547988894e-02       4.508647948141e+03 
       4.127792304766e-02       3.960599096212e+03 
       4.720774970212e-02       3.626313289985e+03 
       5.164080378615e-02       3.422261208069e+03 
       5.538760687123e-02       3.270081498087e+03 
       5.877709139155e-02       3.140984519544e+03 
       6.196279932823e-02       3.022142730650e+03 
       6.502887024059e-02       2.907050491335e+03 
       6.802702930760e-02       2.792376750625e+03 
       7.099190083029e-02       2.676699253091e+03 
       7.394825697991e-02       2.559884235873e+03 
       7.691481174775e-02       2.442705492141e+03 
       7.990636579450e-02       2.326552130012e+03 
       8.293509488707e-02       2.213166100947e+03 
       8.601136262342e-02       2.104391923268e+03 
       8.914425397298e-02       2.001939155196e+03 
       9.234193727046e-02       1.907168778510e+03 
       9.561191659988e-02       1.820916274942e+03 
       9.896121173271e-02       1.743365549939e+03 
       1.023964887413e-01       1.673986772868e+03 
       1.059241561382e-01       1.611550974026e+03 
       1.095504363604e-01       1.554234027320e+03 
       1.132814192712e-01       1.499818806615e+03 
       1.171231023387e-01       1.445992821467e+03 
       1.210814208396e-01       1.390714898743e+03 
       1.251622705719e-01       1.332593929648e+03 
       1.293715249833e-01       1.271192954651e+03 
       1.337150482408e-01       1.207162548222e+03 
       1.381987055128e-01       1.142133123421e+03 
       1.428283715650e-01       1.078356865003e+03 
       1.476099386694e-01       1.018168965354e+03 
       1.525493247514e-01       9.634002760830e+02 
       1.576524826620e-01       9.148971483295e+02 
       1.629254114323e-01       8.722828399180e+02 
       1.683741703522e-01       8.340459143045e+02 
       1.740048967040e-01       7.979726490505e+02 
       1.798238279709e-01       7.618445993627e+02 
       1.858373293435e-01       7.241998071654e+02 
       1.920519273455e-01       6.848590757556e+02 
       1.984743504225e-01       6.449487572590e+02 
       2.051115773705e-01       6.063565451606e+02 
       2.119708945463e-01       5.708478193225e+02 
       2.190599629065e-01       5.392604337606e+02 
       2.263868960788e-01       5.111662154345e+02 
       2.339603508952e-01       4.851682252796e+02 
       2.417896321379e-01       4.596969842455e+02 
       2.498848136793e-01       4.338812795553e+02 
       2.582568787826e-01       4.079636450122e+02 
       2.669178831063e-01       3.829775497024e+02 
       2.758811449796e-01       3.599196562285e+02 
       2.851614688763e-01       3.390307956131e+02 
       2.947754098114e-01       3.197085378379e+02 
       3.047415887886e-01       3.010784861806e+02 
       3.150810726574e-01       2.827196469815e+02 
       3.258178361329e-01       2.649014217678e+02 
       3.369793297810e-01       2.481501978046e+02 
       3.485971862122e-01       2.326373992405e+02 
       3.607081086802e-01       2.180408823797e+02 
       3.733550034860e-01       2.039702047561e+02 
       3.865884427767e-01       1.903874947176e+02 
       4.004685819254e-01       1.775045261602e+02 
       4.150677129530e-01       1.653761900790e+02 
       4.304737247137e-01       1.538153444211e+02 
       4.467948831963e-01       1.426931844390e+02 
       4.641665796454e-01       1.320596476806e+02 
       4.827610913994e-01       1.219179977881e+02 
       5.028020974792e-01       1.121597345658e+02 
       5.245869637501e-01       1.027397709535e+02 
       5.485222426283e-01       9.363796191952e+01 
       5.751827143628e-01       8.477325830655e+01 
       6.054146879883e-01       7.608450038221e+01 
       6.405278757312e-01       6.748547385254e+01 
       6.826775950410e-01       5.886381294799e+01 
       7.356881738769e-01       5.006727791218e+01 
       8.069625295621e-01       4.089729133453e+01 
       9.119300291561e-01       3.118868152438e+01 
       1.080653381213e+00       2.127928588941e+01 
       1.341734862629e+00       1.294672891143e+01 
       1.687996721236e+00       7.561776069183e+00 
       2.125047094531e+00       4.366369710674e+00 
       2.675275753264e+00       2.498916107091e+00 
       3.367972629330e+00       1.418730580207e+00 
       4.240026329291e+00       7.996386958341e-01 
       5.337876892621e+00       4.477369508417e-01 
       6.719988865149e+00       2.491966852774e-01 
       8.459964749310e+00       1.379356157783e-01 
       1.065046460579e+01       7.596668086955e-02 
