# Matter power spectrum P(k) at redshift z=2
# for k=2.05299e-07 to 10.3021 h/Mpc,
# number of wavenumbers equal to 139
#    1:k (h/Mpc)              2:P (Mpc/h)^3        
       2.052988228862e-07       2.488908448719e-01 
       2.584559051428e-07       3.100122975650e-01 
       3.253767068126e-07       3.861436713460e-01 
       4.096250046123e-07       4.809710326606e-01 
       5.156873276127e-07       5.990856547247e-01 
       6.492118812718e-07       7.462063139948e-01 
       8.173093349718e-07       9.294561769749e-01 
       1.028931491093e-06       1.157707683508e+00 
       1.295348001132e-06       1.442012124286e+00 
       1.630746515742e-06       1.796134711518e+00 
       2.052988228862e-06       2.237221048387e+00 
       2.584559051428e-06       2.786627263498e+00 
       3.253767068126e-06       3.470954001542e+00 
       4.096250046123e-06       4.323334325500e+00 
       5.156873276127e-06       5.385037872854e+00 
       6.492118812718e-06       6.707468912775e+00 
       8.173093349718e-06       8.354654992018e+00 
       1.028931491093e-05       1.040634656951e+01 
       1.295348001132e-05       1.296187751366e+01 
       1.630746515742e-05       1.614497300550e+01 
       2.052988228862e-05       2.010973688016e+01 
       2.584559051428e-05       2.504810680718e+01 
       3.253767068126e-05       3.119913535584e+01 
       4.096250046123e-05       3.886054052690e+01 
       5.156873276127e-05       4.840307365263e+01 
       6.492118812718e-05       6.028837787913e+01 
       8.173093349718e-05       7.509115788368e+01 
       1.028931491093e-04       9.352664775025e+01 
       1.295348001132e-04       1.164845377418e+02 
       1.630746515742e-04       1.450706734295e+02 
       2.052988228862e-04       1.806579108016e+02 
       2.584559051428e-04       2.249473798251e+02 
       3.253767068126e-04       2.800408669812e+02 
       4.096250046123e-04       3.485237558520e+02 
       5.156873276127e-04       4.335555966095e+02 
       6.492118812718e-04       5.389617918100e+02 
       8.173093349718e-04       6.693157741326e+02 
       1.028931491093e-03       8.299976240505e+02 
       1.295348001132e-03       1.027208468114e+03 
       1.630746515742e-03       1.267882583019e+03 
       2.052988228862e-03       1.559397337790e+03 
       2.584559051428e-03       1.908934645268e+03 
       3.253767068126e-03       2.322432422147e+03 
       4.096250046123e-03       2.799726691820e+03 
       5.156873276127e-03       3.343328106130e+03 
       6.492118812718e-03       3.939600760279e+03 
       8.173093349718e-03       4.563276479889e+03 
       1.028931491093e-02       5.169455418972e+03 
       1.295348001132e-02       5.688004482140e+03 
       1.630746515688e-02       6.022691207989e+03 
       2.052988070070e-02       6.065867061401e+03 
       2.584491932325e-02       5.745362201077e+03 
       3.248016785503e-02       5.111054385207e+03 
       3.974469144438e-02       4.451401148746e+03 
       4.523564060676e-02       4.071203868251e+03 
       4.938374091562e-02       3.851268750332e+03 
       5.291324587099e-02       3.697548812392e+03 
       5.611769394132e-02       3.574169336987e+03 
       5.913598885886e-02       3.464050206638e+03 
       6.204501030766e-02       3.357681578423e+03 
       6.489236215236e-02       3.249454408833e+03 
       6.771008580398e-02       3.136235051693e+03 
       7.052120701991e-02       3.016723840535e+03 
       7.334318463934e-02       2.891097531113e+03 
       7.618987009294e-02       2.760737973343e+03 
       7.907268923208e-02       2.627959788402e+03 
       8.200139023984e-02       2.495705766864e+03 
       8.498453593987e-02       2.367206553345e+03 
       8.802983855676e-02       2.245623872431e+03 
       9.114439353954e-02       2.133702500891e+03 
       9.433484651501e-02       2.033460550471e+03 
       9.760751461825e-02       1.945942986583e+03 
       1.009684758781e-01       1.871056934257e+03 
       1.044236357200e-01       1.807506557152e+03 
       1.079787767573e-01       1.752849398036e+03 
       1.116395961887e-01       1.703703019111e+03 
       1.154117339120e-01       1.656129826226e+03 
       1.193007936659e-01       1.606204377076e+03 
       1.233123589823e-01       1.550711886888e+03 
       1.274520053759e-01       1.487847368588e+03 
       1.317253099661e-01       1.417720524046e+03 
       1.361378595702e-01       1.342463995006e+03 
       1.406952582099e-01       1.265829804444e+03 
       1.454031349093e-01       1.192320029413e+03 
       1.502671526235e-01       1.126067514898e+03 
       1.552930191125e-01       1.069769614378e+03 
       1.604865005597e-01       1.023953891493e+03 
       1.658534387235e-01       9.867658235064e+02 
       1.713997724029e-01       9.543880886736e+02 
       1.771315639972e-01       9.221165340443e+02 
       1.830550319448e-01       8.859240141396e+02 
       1.891765898417e-01       8.440135376302e+02 
       1.955028930793e-01       7.976126822456e+02 
       2.020408939026e-01       7.504479721556e+02 
       2.087979058929e-01       7.070161200475e+02 
       2.157816790323e-01       6.704832227878e+02 
       2.230004867317e-01       6.412386036152e+02 
       2.304632265095e-01       6.167767219956e+02 
       2.381795364340e-01       5.930368295010e+02 
       2.461599300077e-01       5.666937158355e+02 
       2.544159529249e-01       5.371495680738e+02 
       2.629603661313e-01       5.067721867555e+02 
       2.718073609307e-01       4.790321194558e+02 
       2.809728136344e-01       4.559040991848e+02 
       2.904745895800e-01       4.365042465689e+02 
       3.003329094909e-01       4.179845831842e+02 
       3.105707954235e-01       3.980459894581e+02 
       3.212146194452e-01       3.769285458879e+02 
       3.322947864149e-01       3.568604633141e+02 
       3.438465939129e-01       3.394876411282e+02 
       3.559113291838e-01       3.241264477886e+02 
       3.685376876174e-01       3.088077841604e+02 
       3.817836341534e-01       2.928329496064e+02 
       3.957188852396e-01       2.774448540457e+02 
       4.104282767844e-01       2.636535507741e+02 
       4.260164241422e-01       2.506579902749e+02 
       4.426143116735e-01       2.374444894800e+02 
       4.603888427779e-01       2.245493971058e+02 
       4.795570736014e-01       2.125344852806e+02 
       5.004081215781e-01       2.006842089961e+02 
       5.233381695462e-01       1.888689570941e+02 
       5.489088869892e-01       1.774307755762e+02 
       5.779500689449e-01       1.658828223297e+02 
       6.117512096072e-01       1.542712042077e+02 
       6.524452525667e-01       1.422681851197e+02 
       7.038402847676e-01       1.296030944011e+02 
       7.733565108668e-01       1.157398237874e+02 
       8.765026787879e-01       9.998172947326e+01 
       1.042887585506e+00       8.204172292719e+01 
       1.297620585377e+00       6.419717377448e+01 
       1.632775767629e+00       4.938229536998e+01 
       2.055533314409e+00       3.744666833632e+01 
       2.587763104508e+00       2.779011779539e+01 
       3.257800731963e+00       2.006195654006e+01 
       4.101328128030e+00       1.402958112127e+01 
       5.163266202483e+00       9.487392285661e+00 
       6.500167030164e+00       6.212555316810e+00 
       8.183225455180e+00       3.954510240682e+00 
       1.030207047597e+01       2.458666040153e+00 
