# Matter power spectrum P(k) at redshift z=1
# for k=1.93003e-07 to 12.1945 h/Mpc,
# number of wavenumbers equal to 140
#    1:k (h/Mpc)              2:P (Mpc/h)^3        
       1.930030672362e-07       4.810473041569e-01 
       2.429764658979e-07       6.002577621018e-01 
       3.058892473868e-07       7.490102898667e-01 
       3.850917467298e-07       9.346258379602e-01 
       4.848017858304e-07       1.166239593351e+00 
       6.103292878650e-07       1.455250572930e+00 
       7.683590500555e-07       1.815882632417e+00 
       9.673067334969e-07       2.265884500126e+00 
       1.217767027799e-06       2.827403286978e+00 
       1.533077856941e-06       3.528074462482e+00 
       1.930030672362e-06       4.402381932604e+00 
       2.429764658979e-06       5.493355151493e+00 
       3.058892473868e-06       6.854686771495e+00 
       3.850917467298e-06       8.553375021035e+00 
       4.848017858304e-06       1.067302078273e+01 
       6.103292878650e-06       1.331794151119e+01 
       7.683590500555e-06       1.661830418436e+01 
       9.673067334969e-06       2.073652938801e+01 
       1.217767027799e-05       2.587528065248e+01 
       1.533077856941e-05       3.228743018730e+01 
       1.930030672362e-05       4.028848736854e+01 
       2.429764658979e-05       5.027209356287e+01 
       3.058892473868e-05       6.272932987234e+01 
       3.850917467298e-05       7.827275642723e+01 
       4.848017858304e-05       9.766630401303e+01 
       6.103292878650e-05       1.218623662240e+02 
       7.683590500555e-05       1.520476762580e+02 
       9.673067334969e-05       1.896997528482e+02 
       1.217767027799e-04       2.366557714576e+02 
       1.533077856941e-04       2.951954696183e+02 
       1.930030672362e-04       3.681387755637e+02 
       2.429764658979e-04       4.589566509555e+02 
       3.058892473868e-04       5.718892646897e+02 
       3.850917467298e-04       7.120581237815e+02 
       4.848017858304e-04       8.855482215888e+02 
       6.103292878650e-04       1.099425826129e+03 
       7.683590500555e-04       1.361654030348e+03 
       9.673067334969e-04       1.680867460798e+03 
       1.217767027799e-03       2.065914967544e+03 
       1.533077856941e-03       2.524921363226e+03 
       1.930030672362e-03       3.063637963275e+03 
       2.429764658979e-03       3.683207221709e+03 
       3.058892473868e-03       4.377320091228e+03 
       3.850917467298e-03       5.129064853469e+03 
       4.848017858304e-03       5.907567603071e+03 
       6.103292878650e-03       6.661483542060e+03 
       7.683590500555e-03       7.332108583069e+03 
       9.673067334969e-03       7.834682758300e+03 
       1.217767027799e-02       8.074593213152e+03 
       1.533077856941e-02       7.955457703503e+03 
       1.930030671383e-02       7.404685179096e+03 
       2.429763167962e-02       6.424384595705e+03 
       3.058529218537e-02       5.161290741081e+03 
       3.831188776767e-02       3.946978249994e+03 
       4.586554510682e-02       3.202982902711e+03 
       5.128692003682e-02       2.873211562634e+03 
       5.557066234384e-02       2.684554638402e+03 
       5.930980003403e-02       2.545964457823e+03 
       6.275250323775e-02       2.425353004933e+03 
       6.602300351918e-02       2.308830985305e+03 
       6.919289007208e-02       2.190176387945e+03 
       7.230781696469e-02       2.067258656345e+03 
       7.539922060891e-02       1.940469254813e+03 
       7.849011209890e-02       1.811819625675e+03 
       8.159821062657e-02       1.684278819944e+03 
       8.473776122816e-02       1.561213692257e+03 
       8.792064952062e-02       1.445902102005e+03 
       9.115711679244e-02       1.341130574059e+03 
       9.445623600181e-02       1.248894727799e+03 
       9.782623845321e-02       1.170210949800e+03 
       1.012747437178e-01       1.105032511084e+03 
       1.048089248148e-01       1.052254588990e+03 
       1.084356288361e-01       1.009795530595e+03 
       1.121614661308e-01       9.747600842828e+02 
       1.159928768191e-01       9.437075491074e+02 
       1.199361806587e-01       9.130509172497e+02 
       1.239976145155e-01       8.795813927622e+02 
       1.281833605352e-01       8.410469841750e+02 
       1.324995673387e-01       7.966408080847e+02 
       1.369523660570e-01       7.472199626374e+02 
       1.415478826802e-01       6.951234382858e+02 
       1.462922479678e-01       6.435885134197e+02 
       1.511916060247e-01       5.959217149264e+02 
       1.562521225495e-01       5.546739522714e+02 
       1.614799937057e-01       5.210468062955e+02 
       1.668814565263e-01       4.946513500956e+02 
       1.724628017418e-01       4.736435349088e+02 
       1.782303899048e-01       4.552225666592e+02 
       1.841906716752e-01       4.364459578543e+02 
       1.903502131222e-01       4.151915273424e+02 
       1.967157269023e-01       3.909097736491e+02 
       2.032941101773e-01       3.647602613506e+02 
       2.100924901668e-01       3.389849278743e+02 
       2.171182782714e-01       3.158144396825e+02 
       2.243792337920e-01       2.964711400014e+02 
       2.318835383934e-01       2.807265870023e+02 
       2.396398826554e-01       2.671597364346e+02 
       2.476575663267e-01       2.539731801812e+02 
       2.559466142704e-01       2.399771701531e+02 
       2.645179106064e-01       2.251778530650e+02 
       2.733833542335e-01       2.105689373901e+02 
       2.825560398255e-01       1.972911158193e+02 
       2.920504695899e-01       1.858099036113e+02 
       3.018828026660e-01       1.756953337188e+02 
       3.120711511451e-01       1.660906447786e+02 
       3.226359345175e-01       1.564440245758e+02 
       3.336003081577e-01       1.468737057696e+02 
       3.449906866701e-01       1.378737017052e+02 
       3.568373901155e-01       1.297252081527e+02 
       3.691754512519e-01       1.222447385562e+02 
       3.820456363283e-01       1.150728292554e+02 
       3.954957528402e-01       1.080917607943e+02 
       4.095823484514e-01       1.014573457698e+02 
       4.243729516021e-01       9.528010095337e+01 
       4.399490755154e-01       8.945777408139e+01 
       4.564103193328e-01       8.386183292642e+01 
       4.738800810395e-01       7.850588978796e+01 
       4.925136976815e-01       7.342622058381e+01 
       5.125103451517e-01       6.856622299470e+01 
       5.341309506404e-01       6.387800196690e+01 
       5.577260810566e-01       5.935986823992e+01 
       5.837811002054e-01       5.497498387626e+01 
       6.129927259288e-01       5.068246376816e+01 
       6.464060412683e-01       4.644500639133e+01 
       6.856758404326e-01       4.220319892425e+01 
       7.336033209938e-01       3.788261082850e+01 
       7.953293085671e-01       3.337527165067e+01 
       8.811512723807e-01       2.853058298657e+01 
       1.012641264019e+00       2.321286879359e+01 
       1.225831321521e+00       1.768722775706e+01 
       1.535404177633e+00       1.301533509687e+01 
       1.932703170422e+00       9.605058658215e+00 
       2.433127381938e+00       7.106122427892e+00 
       3.063125889328e+00       5.233082066046e+00 
       3.856247021599e+00       3.809594271324e+00 
       4.854727369647e+00       2.725177305733e+00 
       6.111739652981e+00       1.906693041058e+00 
       7.694224359408e+00       1.300769823459e+00 
       9.686454570104e+00       8.639691752507e-01 
       1.219452380849e+01       5.586322499291e-01 
