# Matter power spectrum P(k) at redshift z=2
# for k=2.36491e-07 to 11.8648 h/Mpc,
# number of wavenumbers equal to 139
#    1:k (h/Mpc)              2:P (Mpc/h)^3        
       2.364912130759e-07       1.783769950502e-01 
       2.977247978073e-07       2.210796880915e-01 
       3.748133136809e-07       2.740052239190e-01 
       4.718620052717e-07       3.396009075308e-01 
       5.940390692967e-07       4.208999181537e-01 
       7.478508799362e-07       5.216615650231e-01 
       9.414884769843e-07       6.465451195606e-01 
       1.185263768587e-06       8.013252623162e-01 
       1.492158677953e-06       9.931591059487e-01 
       1.878516478104e-06       1.230917143409e+00 
       2.364912130759e-06       1.525593419520e+00 
       2.977247978073e-06       1.890813895584e+00 
       3.748133136809e-06       2.343466508482e+00 
       4.718620052717e-06       2.904482052884e+00 
       5.940390692967e-06       3.599801982542e+00 
       7.478508799362e-06       4.461577859638e+00 
       9.414884769843e-06       5.529657871266e+00 
       1.185263768587e-05       6.853429054648e+00 
       1.492158677953e-05       8.494100246662e+00 
       1.878516478104e-05       1.052753096684e+01 
       2.364912130759e-05       1.304773636990e+01 
       2.977247978073e-05       1.617122898244e+01 
       3.748133136809e-05       2.004239537090e+01 
       4.718620052717e-05       2.484015118052e+01 
       5.940390692967e-05       3.078617212531e+01 
       7.478508799362e-05       3.815506173641e+01 
       9.414884769843e-05       4.728688702028e+01 
       1.185263768587e-04       5.860258590998e+01 
       1.492158677953e-04       7.262281108758e+01 
       1.878516478104e-04       8.999079572680e+01 
       2.364912130759e-04       1.114997499788e+02 
       2.977247978073e-04       1.381250176561e+02 
       3.748133136809e-04       1.710605615886e+02 
       4.718620052717e-04       2.117580428033e+02 
       5.940390692967e-04       2.619645466832e+02 
       7.478508799362e-04       3.237519193508e+02 
       9.414884769843e-04       3.995276470704e+02 
       1.185263768587e-03       4.920160923684e+02 
       1.492158677953e-03       6.041978697062e+02 
       1.878516478104e-03       7.391769399022e+02 
       2.364912130759e-03       8.998939767956e+02 
       2.977247978073e-03       1.088610158659e+03 
       3.748133136809e-03       1.306197419168e+03 
       4.718620052717e-03       1.551185674110e+03 
       5.940390692967e-03       1.818526364399e+03 
       7.478508799362e-03       2.096418752296e+03 
       9.414884769843e-03       2.371073568115e+03 
       1.185263768587e-02       2.616924214997e+03 
       1.492158677953e-02       2.801383149415e+03 
       1.878516478101e-02       2.885552113872e+03 
       2.364912112120e-02       2.831835573137e+03 
       2.977233749004e-02       2.621880277449e+03 
       3.746159097969e-02       2.284797942542e+03 
       4.652790108820e-02       1.928911160151e+03 
       5.418181715869e-02       1.707043058326e+03 
       5.973085726043e-02       1.586027038339e+03 
       6.430518756057e-02       1.503120082359e+03 
       6.838863080441e-02       1.436418389274e+03 
       7.219670569334e-02       1.376854603353e+03 
       7.584341476688e-02       1.320002603006e+03 
       7.939708523235e-02       1.263610305271e+03 
       8.290258412978e-02       1.206669042890e+03 
       8.639152398471e-02       1.148983015797e+03 
       8.988748504101e-02       1.090919682220e+03 
       9.340891629190e-02       1.033227592555e+03 
       9.697085406231e-02       9.768783310312e+02 
       1.005859938942e-01       9.229191308475e+02 
       1.042653877275e-01       8.723359719219e+02 
       1.080189133076e-01       8.259326152490e+02 
       1.118555993958e-01       7.842324172323e+02 
       1.157838564347e-01       7.474088945145e+02 
       1.198116432983e-01       7.152497822043e+02 
       1.239465896480e-01       6.871587241778e+02 
       1.281960867108e-01       6.621996836560e+02 
       1.325673551327e-01       6.391901975600e+02 
       1.370674959041e-01       6.168456619413e+02 
       1.417035286398e-01       5.939679341527e+02 
       1.464824203590e-01       5.696538502128e+02 
       1.514111071639e-01       5.434801775581e+02 
       1.564965107098e-01       5.156102083537e+02 
       1.617455510335e-01       4.867746055581e+02 
       1.671651570809e-01       4.581107882337e+02 
       1.727622761369e-01       4.308894777061e+02 
       1.785438832706e-01       4.061975297757e+02 
       1.845169918488e-01       3.846613730992e+02 
       1.906886661380e-01       3.662837518894e+02 
       1.970660369931e-01       3.504391049596e+02 
       2.036563216135e-01       3.360435152454e+02 
       2.104668483397e-01       3.218788002085e+02 
       2.175050874582e-01       3.069941441535e+02 
       2.247786889845e-01       2.910439329386e+02 
       2.322955284100e-01       2.744010053926e+02 
       2.400637614369e-01       2.579627253363e+02 
       2.480918887888e-01       2.427229982870e+02 
       2.563888322958e-01       2.293143260994e+02 
       2.649640236214e-01       2.177390368699e+02 
       2.738275072443e-01       2.074132721081e+02 
       2.829900596515e-01       1.975040020026e+02 
       2.924633271777e-01       1.873928843011e+02 
       3.022599855640e-01       1.770008962552e+02 
       3.123939251605e-01       1.667577583721e+02 
       3.228804668316e-01       1.572363692404e+02 
       3.337366151101e-01       1.487254118485e+02 
       3.449813571311e-01       1.410540395593e+02 
       3.566360185048e-01       1.337811157723e+02 
       3.687246908314e-01       1.265771451331e+02 
       3.812747503517e-01       1.194648042736e+02 
       3.943174938141e-01       1.127084191501e+02 
       4.078889267882e-01       1.064906411226e+02 
       4.220307525667e-01       1.007277333803e+02 
       4.367916283029e-01       9.520238292171e+01 
       4.522287820059e-01       8.982255330984e+01 
       4.684101240792e-01       8.467671345458e+01 
       4.854170477969e-01       7.984499904461e+01 
       5.033482071706e-01       7.526739450379e+01 
       5.223247099827e-01       7.085130001653e+01 
       5.424974073336e-01       6.660060335754e+01 
       5.640573705448e-01       6.254342839761e+01 
       5.872513584408e-01       5.863863277059e+01 
       6.124053649441e-01       5.484777316834e+01 
       6.399617653355e-01       5.116909136920e+01 
       6.705403934675e-01       4.757109477089e+01 
       7.050439745206e-01       4.401897749363e+01 
       7.448508734363e-01       4.047754244545e+01 
       7.921920248999e-01       3.689047815764e+01 
       8.509468625798e-01       3.318230929994e+01 
       9.284595959133e-01       2.923993841475e+01 
       1.039831088385e+00       2.491117108904e+01 
       1.215896780424e+00       2.011114753930e+01 
       1.496243164517e+00       1.530010679797e+01 
       1.880496108929e+00       1.141898861487e+01 
       2.367344017733e+00       8.520182842463e+00 
       2.980309316760e+00       6.319413944522e+00 
       3.751987133757e+00       4.625836556140e+00 
       4.723471947412e+00       3.321773574505e+00 
       5.946498866493e+00       2.329454201453e+00 
       7.486198534234e+00       1.590590439968e+00 
       9.424565572483e+00       1.055919257533e+00 
       1.186482509432e+01       6.815709907062e-01 
