# Matter power spectrum P(k) at redshift z=1.5
# for k=1.86919e-07 to 11.809 h/Mpc,
# number of wavenumbers equal to 140
#    1:k (h/Mpc)              2:P (Mpc/h)^3        
       1.869188606920e-07       4.616827411320e-01 
       2.353169036688e-07       5.764924705531e-01 
       2.962464298534e-07       7.198527013517e-01 
       3.729521586957e-07       8.988632770268e-01 
       4.695189499656e-07       1.122389605853e+00 
       5.910893374306e-07       1.401501715641e+00 
       7.441373875319e-07       1.750022489913e+00 
       9.368134670300e-07       2.185212236950e+00 
       1.179378279755e-06       2.728623494583e+00 
       1.484749286502e-06       3.407168399324e+00 
       1.869188606920e-06       4.254451480274e+00 
       2.353169036688e-06       5.312433872064e+00 
       2.962464298534e-06       6.633511354462e+00 
       3.729521586957e-06       8.283109094842e+00 
       4.695189499656e-06       1.034292153686e+01 
       5.910893374306e-06       1.291495776484e+01 
       7.441373875319e-06       1.612659243558e+01 
       9.368134670300e-06       2.013687192621e+01 
       1.179378279755e-05       2.514438705483e+01 
       1.484749286502e-05       3.139710030443e+01 
       1.869188606920e-05       3.920461043978e+01 
       2.353169036688e-05       4.895345438872e+01 
       2.962464298534e-05       6.112618925047e+01 
       3.729521586957e-05       7.632516998064e+01 
       4.695189499656e-05       9.530214212171e+01 
       5.910893374306e-05       1.189950001000e+02 
       7.441373875319e-05       1.485733054994e+02 
       9.368134670300e-05       1.854943751975e+02 
       1.179378279755e-04       2.315718493732e+02 
       1.484749286502e-04       2.890584521798e+02 
       1.869188606920e-04       3.607438191610e+02 
       2.353169036688e-04       4.500661757782e+02 
       2.962464298534e-04       5.612323559261e+02 
       3.729521586957e-04       6.993329829985e+02 
       4.695189499656e-04       8.704280786226e+02 
       5.910893374306e-04       1.081565358167e+03 
       7.441373875319e-04       1.340687012118e+03 
       9.368134670300e-04       1.656386547338e+03 
       1.179378279755e-03       2.037457424720e+03 
       1.484749286502e-03       2.492028737639e+03 
       1.869188606920e-03       3.025952894891e+03 
       2.353169036688e-03       3.640531504163e+03 
       2.962464298534e-03       4.329784096607e+03 
       3.729521586957e-03       5.077291816657e+03 
       4.695189499656e-03       5.853044759528e+03 
       5.910893374306e-03       6.606519541532e+03 
       7.441373875319e-03       7.282926969548e+03 
       9.368134670300e-03       7.801797264359e+03 
       1.179378279755e-02       8.076412235372e+03 
       1.484749286502e-02       8.021654782108e+03 
       1.869188604833e-02       7.576676070819e+03 
       2.353166425554e-02       6.745628305706e+03 
       2.961922515091e-02       5.649214772820e+03 
       3.703834899548e-02       4.557869313503e+03 
       4.400553585778e-02       3.843844829697e+03 
       4.899035108799e-02       3.472989429713e+03 
       5.297915878109e-02       3.227546478598e+03 
       5.648439578215e-02       3.032890879973e+03 
       5.972398332122e-02       2.861877300649e+03 
       6.280876756364e-02       2.702780967669e+03 
       6.580335476066e-02       2.550387879924e+03 
       6.874929357561e-02       2.402781713233e+03 
       7.167538189180e-02       2.259885681411e+03 
       7.460281268038e-02       2.122647058587e+03 
       7.754797897733e-02       1.992495717564e+03 
       8.052411087628e-02       1.870944051940e+03 
       8.354228426769e-02       1.759280820516e+03 
       8.661207048786e-02       1.658344965362e+03 
       8.974197016409e-02       1.568376179517e+03 
       9.293971176312e-02       1.488940848827e+03 
       9.621246217872e-02       1.418933503739e+03 
       9.956697829299e-02       1.356655316710e+03 
       1.030097178080e-01       1.299971165834e+03 
       1.065469212725e-01       1.246544835885e+03 
       1.101846732980e-01       1.194139098576e+03 
       1.139289484680e-01       1.140946597368e+03 
       1.177856458405e-01       1.085890482327e+03 
       1.217606148870e-01       1.028817596021e+03 
       1.258596750130e-01       9.705125148680e+02 
       1.300886303419e-01       9.124997673415e+02 
       1.344532811312e-01       8.566624661336e+02 
       1.389594329885e-01       8.047676671334e+02 
       1.436129049196e-01       7.580219179892e+02 
       1.484195371575e-01       7.167735768487e+02 
       1.533851996654e-01       6.804399842401e+02 
       1.585158021761e-01       6.476856843473e+02 
       1.638173066065e-01       6.168216229210e+02 
       1.692957426743e-01       5.863277652176e+02 
       1.749572275330e-01       5.553335127411e+02 
       1.808079902372e-01       5.238631070034e+02 
       1.868544018495e-01       4.927216882718e+02 
       1.931030120120e-01       4.630589411234e+02 
       1.995605928295e-01       4.358134309434e+02 
       2.062341909588e-01       4.113016947350e+02 
       2.131311888841e-01       3.891373074062e+02 
       2.202593764802e-01       3.684986246022e+02 
       2.276270341581e-01       3.485913947783e+02 
       2.352430291495e-01       3.290450950682e+02 
       2.431169268593e-01       3.100131332539e+02 
       2.512591197080e-01       2.919363701856e+02 
       2.596809765559e-01       2.751617262198e+02 
       2.683950166807e-01       2.596966704284e+02 
       2.774151134452e-01       2.452539537246e+02 
       2.867567343376e-01       2.315067690871e+02 
       2.964372261174e-01       2.183191628172e+02 
       3.064761565492e-01       2.057645601957e+02 
       3.168957279231e-01       1.939575951490e+02 
       3.277212826482e-01       1.828952562792e+02 
       3.389819282483e-01       1.724599591075e+02 
       3.507113189919e-01       1.625411776242e+02 
       3.629486455245e-01       1.531125192267e+02 
       3.757399043777e-01       1.441878170894e+02 
       3.891395495501e-01       1.357450214531e+02 
       4.032126740456e-01       1.277260445365e+02 
       4.180379396405e-01       1.200877454372e+02 
       4.337115841728e-01       1.128119939928e+02 
       4.503530154497e-01       1.058736661406e+02 
       4.681128007455e-01       9.923450926645e+01 
       4.871843777218e-01       9.286168852345e+01 
       5.078217371138e-01       8.672501163858e+01 
       5.303670520654e-01       8.078586960042e+01 
       5.552956029982e-01       7.500294922519e+01 
       5.832923157687e-01       6.932836283488e+01 
       6.153895345547e-01       6.370150584984e+01 
       6.532316110008e-01       5.804485115862e+01 
       6.996224435926e-01       5.225047819389e+01 
       7.597519770508e-01       4.616275037429e+01 
       8.440977979569e-01       3.956199603752e+01 
       9.745329800761e-01       3.225787231002e+01 
       1.185514727728e+00       2.468001184533e+01 
       1.486792655631e+00       1.831198872049e+01 
       1.871601092406e+00       1.359612190594e+01 
       2.356205246787e+00       1.007588484532e+01 
       2.966286659746e+00       7.400225465457e+00 
       3.734333654620e+00       5.351656601721e+00 
       4.701247533920e+00       3.790731508571e+00 
       5.918519987586e+00       2.620020928333e+00 
       7.450975212584e+00       1.763001657092e+00 
       9.380222037770e+00       1.154003758151e+00 
       1.180899989162e+01       7.353186032508e-01 
