# Matter power spectrum P(k) at redshift z=1
# for k=2.18739e-07 to 10.9743 h/Mpc,
# number of wavenumbers equal to 139
#    1:k (h/Mpc)              2:P (Mpc/h)^3        
       2.187394691279e-07       2.309262067002e-01 
       2.753766762475e-07       2.890301986655e-01 
       3.466786955433e-07       3.617538992359e-01 
       4.364426195472e-07       4.527758142646e-01 
       5.494487045379e-07       5.667000086017e-01 
       6.917149366202e-07       7.092889884677e-01 
       8.708175114287e-07       8.877551798250e-01 
       1.096294294173e-06       1.111125746132e+00 
       1.380152745739e-06       1.390699198126e+00 
       1.737509363769e-06       1.740616891892e+00 
       2.187394691279e-06       2.178578319557e+00 
       2.753766762475e-06       2.726736372185e+00 
       3.466786955433e-06       3.412817852389e+00 
       4.364426195472e-06       4.271525903213e+00 
       5.494487045379e-06       5.346295266996e+00 
       6.917149366202e-06       6.691489114110e+00 
       8.708175114287e-06       8.375148472139e+00 
       1.096294294173e-05       1.048243314445e+01 
       1.380152745739e-05       1.311992781954e+01 
       1.737509363769e-05       1.642103046735e+01 
       2.187394691279e-05       2.055269420068e+01 
       2.753766762475e-05       2.572386083384e+01 
       3.466786955433e-05       3.219600726569e+01 
       4.364426195472e-05       4.029632726991e+01 
       5.494487045379e-05       5.043419399236e+01 
       6.917149366202e-05       6.312169332503e+01 
       8.708175114287e-05       7.899918302017e+01 
       1.096294294173e-04       9.886700531995e+01 
       1.380152745739e-04       1.237246342950e+02 
       1.737509363769e-04       1.548186103845e+02 
       2.187394691279e-04       1.937004820529e+02 
       2.753766762475e-04       2.422954168851e+02 
       3.466786955433e-04       3.029808113381e+02 
       4.364426195472e-04       3.786716788946e+02 
       5.494487045379e-04       4.729055766464e+02 
       6.917149366202e-04       5.899149384912e+02 
       8.708175114287e-04       7.346706697108e+02 
       1.096294294173e-03       9.128764126621e+02 
       1.380152745739e-03       1.130870128590e+03 
       1.737509363769e-03       1.395324033001e+03 
       2.187394691279e-03       1.712605816252e+03 
       2.753766762475e-03       2.087761266269e+03 
       3.466786955433e-03       2.523011336349e+03 
       4.364426195472e-03       3.015724290247e+03 
       5.494487045379e-03       3.555788193370e+03 
       6.917149366202e-03       4.122561392950e+03 
       8.708175114287e-03       4.681786473512e+03 
       1.096294294173e-02       5.182834212954e+03 
       1.380152745739e-02       5.557717821727e+03 
       1.737509363766e-02       5.725124247392e+03 
       2.187394675207e-02       5.606658587250e+03 
       2.753754271665e-02       5.165352104984e+03 
       3.465028600217e-02       4.465995301079e+03 
       4.305014633583e-02       3.738675704373e+03 
       5.016863753347e-02       3.294809207096e+03 
       5.532476408689e-02       3.059015374957e+03 
       5.957083225558e-02       2.900203223445e+03 
       6.335918237481e-02       2.773163440075e+03 
       6.689095106365e-02       2.659298582755e+03 
       7.027238443399e-02       2.549583151574e+03 
       7.356709722135e-02       2.439488361175e+03 
       7.681683062185e-02       2.327081381641e+03 
       8.005097722970e-02       2.212144229427e+03 
       8.329145063115e-02       2.095655882505e+03 
       8.655538868758e-02       1.979404009675e+03 
       8.985675410244e-02       1.865641022031e+03 
       9.320733226186e-02       1.756759842697e+03 
       9.661738002132e-02       1.654992866480e+03 
       1.000960624002e-01       1.562148125329e+03 
       1.036517550528e-01       1.479398172551e+03 
       1.072922587635e-01       1.407133732216e+03 
       1.110249544817e-01       1.344889775629e+03 
       1.148569170667e-01       1.291351541617e+03 
       1.187949996720e-01       1.244451397308e+03 
       1.228458968134e-01       1.201570824535e+03 
       1.270161917042e-01       1.159857290755e+03 
       1.313123918344e-01       1.116643724667e+03 
       1.357409557215e-01       1.069918341377e+03 
       1.403083130583e-01       1.018745002199e+03 
       1.450208800200e-01       9.635067586814e+02 
       1.498850711802e-01       9.058623088148e+02 
       1.549073092846e-01       8.483792054846e+02 
       1.600940339980e-01       7.939135963122e+02 
       1.654517106533e-01       7.448973155211e+02 
       1.709868399842e-01       7.027240378912e+02 
       1.767059697838e-01       6.673921778673e+02 
       1.826157094160e-01       6.374985408005e+02 
       1.887227480888e-01       6.106156145897e+02 
       1.950338777913e-01       5.840131179020e+02 
       2.015560217916e-01       5.555601181182e+02 
       2.082962695943e-01       5.244905666912e+02 
       2.152619192728e-01       4.916613425937e+02 
       2.224605281220e-01       4.591106878359e+02 
       2.298999726420e-01       4.290866399428e+02 
       2.375885189613e-01       4.030144402108e+02 
       2.455349049660e-01       3.808967161904e+02 
       2.537484356265e-01       3.614166254571e+02 
       2.622390933326e-01       3.426976356053e+02 
       2.710176654900e-01       3.233511588216e+02 
       2.800958922178e-01       3.032121202555e+02 
       2.894866377797e-01       2.832679782727e+02 
       2.992040904234e-01       2.648261627063e+02 
       3.092639966848e-01       2.485445784614e+02 
       3.196839380412e-01       2.340374195163e+02 
       3.304836602344e-01       2.203072766159e+02 
       3.416854688540e-01       2.066136301148e+02 
       3.533147092048e-01       1.930192107144e+02 
       3.654003545636e-01       1.801357903192e+02 
       3.779757353897e-01       1.683857382573e+02 
       3.910794539803e-01       1.575822532695e+02 
       4.047565461542e-01       1.472347886401e+02 
       4.190599764648e-01       1.371412626410e+02 
       4.340525904353e-01       1.275129951992e+02 
       4.498097033568e-01       1.185407387043e+02 
       4.664225920111e-01       1.100930870978e+02 
       4.840032934706e-01       1.019650807552e+02 
       5.026913398387e-01       9.417514658964e+01 
       5.226634354552e-01       8.679778984632e+01 
       5.441477396925e-01       7.974819697093e+01 
       5.674456044849e-01       7.295005875057e+01 
       5.929658527899e-01       6.641466955751e+01 
       6.212811165610e-01       6.008790950571e+01 
       6.532250399630e-01       5.391450234515e+01 
       6.900698782100e-01       4.784793077035e+01 
       7.338735634378e-01       4.181019960719e+01 
       7.882120177634e-01       3.570834946467e+01 
       8.598491584745e-01       2.941612581188e+01 
       9.626841225573e-01       2.280606100692e+01 
       1.125133304094e+00       1.597436756177e+01 
       1.384014954898e+00       9.876523674308e+00 
       1.739350131472e+00       5.754350190637e+00 
       2.189653606157e+00       3.308594737890e+00 
       2.756610345396e+00       1.886425216407e+00 
       3.470366814114e+00       1.067479264434e+00 
       4.368932970535e+00       5.999372096084e-01 
       5.500160739032e+00       3.350777998844e-01 
       6.924292123320e+00       1.860863448281e-01 
       8.717167312734e+00       1.028062481836e-01 
       1.097426344886e+01       5.652531798474e-02 
