# Matter power spectrum P(k) at redshift z=0.5
# for k=2.10254e-07 to 10.5491 h/Mpc,
# number of wavenumbers equal to 139
#    1:k (h/Mpc)              2:P (Mpc/h)^3        
       2.102535388843e-07       5.833743511838e-01 
       2.646935230211e-07       7.263355996973e-01 
       3.332294024686e-07       9.043308163293e-01 
       4.195109627248e-07       1.125945396836e+00 
       5.281330115004e-07       1.401868666778e+00 
       6.648800689853e-07       1.745409468520e+00 
       8.370344146410e-07       2.173138097443e+00 
       1.053763895138e-06       2.705685549701e+00 
       1.326610145620e-06       3.368738631829e+00 
       1.670103223865e-06       4.194278928896e+00 
       2.102535388843e-06       5.222125388691e+00 
       2.646935230211e-06       6.501854920319e+00 
       3.332294024686e-06       8.095193636791e+00 
       4.195109627248e-06       1.007899405674e+01 
       5.281330115004e-06       1.254894182671e+01 
       6.648800689853e-06       1.562417067305e+01 
       8.370344146410e-06       1.945300801545e+01 
       1.053763895138e-05       2.422012805933e+01 
       1.326610145620e-05       3.015545675565e+01 
       1.670103223865e-05       3.754525691017e+01 
       2.102535388843e-05       4.674592566427e+01 
       2.646935230211e-05       5.820116502905e+01 
       3.332294024686e-05       7.246334413352e+01 
       4.195109627248e-05       9.022006482425e+01 
       5.281330115004e-05       1.123271750010e+02 
       6.648800689853e-05       1.398497494670e+02 
       8.370344146410e-05       1.741128724723e+02 
       1.053763895138e-04       2.167643930976e+02 
       1.326610145620e-04       2.698521394985e+02 
       1.670103223865e-04       3.359182747880e+02 
       2.102535388843e-04       4.181133682501e+02 
       2.646935230211e-04       5.203320136049e+02 
       3.332294024686e-04       6.473699614062e+02 
       4.195109627248e-04       8.050992068908e+02 
       5.281330115004e-04       1.000652136245e+03 
       6.648800689853e-04       1.242599524332e+03 
       8.370344146410e-04       1.541100204855e+03 
       1.053763895138e-03       1.907982671653e+03 
       1.326610145620e-03       2.356660540174e+03 
       1.670103223865e-03       2.901696350032e+03 
       2.102535388843e-03       3.557835405294e+03 
       2.646935230211e-03       4.338317331946e+03 
       3.332294024686e-03       5.252170650183e+03 
       4.195109627248e-03       6.300265682386e+03 
       5.281330115004e-03       7.450947243241e+03 
       6.648800689853e-03       8.698589997407e+03 
       8.370344146410e-03       9.965273605373e+03 
       1.053763895138e-02       1.114513937126e+04 
       1.326610145620e-02       1.208412524990e+04 
       1.670103223848e-02       1.258383821502e+04 
       2.102535322045e-02       1.243813583202e+04 
       2.646899614969e-02       1.153275525797e+04 
       3.328605531753e-02       1.001280296966e+04 
       4.101232056785e-02       8.479878434646e+03 
       4.708211606372e-02       7.608708906189e+03 
       5.158543404492e-02       7.135006898274e+03 
       5.537177851810e-02       6.816033790886e+03 
       5.878745001523e-02       6.564599734567e+03 
       6.199243483816e-02       6.341561262130e+03 
       6.507373828757e-02       6.126188768627e+03 
       6.808455401173e-02       5.906894880600e+03 
       7.106034057338e-02       5.677707227335e+03 
       7.402638215949e-02       5.436669432345e+03 
       7.700172641634e-02       5.184927949130e+03 
       8.000140215519e-02       4.926031377288e+03 
       8.303774750764e-02       4.665251139315e+03 
       8.612124563722e-02       4.408862195428e+03 
       8.926107225720e-02       4.163391728379e+03 
       9.246546648439e-02       3.934881031850e+03 
       9.574198904248e-02       3.728218345010e+03 
       9.909770614158e-02       3.546594768477e+03 
       1.025393228333e-01       3.391118701178e+03 
       1.060732811018e-01       3.260609408618e+03 
       1.097058327653e-01       3.151588969918e+03 
       1.134430940231e-01       3.058507326400e+03 
       1.172910864145e-01       2.974254473673e+03 
       1.212557676093e-01       2.891010254694e+03 
       1.253430545590e-01       2.801422025174e+03 
       1.295588409523e-01       2.699973724477e+03 
       1.339090105193e-01       2.584248699303e+03 
       1.383994474728e-01       2.455678852162e+03 
       1.430360452004e-01       2.319417243393e+03 
       1.478247142128e-01       2.183210288061e+03 
       1.527713902809e-01       2.055503855545e+03 
       1.578820436521e-01       1.943308406366e+03 
       1.631626902092e-01       1.850414564344e+03 
       1.686194054151e-01       1.776395901302e+03 
       1.742583418778e-01       1.716629046594e+03 
       1.800857513608e-01       1.663437475078e+03 
       1.861080120610e-01       1.608328120223e+03 
       1.923316619811e-01       1.544896923821e+03 
       1.987634392389e-01       1.471351363103e+03 
       2.054103301927e-01       1.391286755951e+03 
       2.122796263217e-01       1.311996676520e+03 
       2.193789909060e-01       1.241011152551e+03 
       2.267165367009e-01       1.182623914619e+03 
       2.343009160293e-01       1.136066019593e+03 
       2.421414250226e-01       1.096095545641e+03 
       2.502481241756e-01       1.055840130871e+03 
       2.586319779508e-01       1.010697388834e+03 
       2.673050169391e-01       9.610046915496e+02 
       2.762805270928e-01       9.113960092231e+02 
       2.855732718913e-01       8.671429184369e+02 
       2.951997550757e-01       8.302943805886e+02 
       3.051785339582e-01       7.984850455415e+02 
       3.155305965022e-01       7.671977039904e+02 
       3.262798196993e-01       7.337097024030e+02 
       3.374535327319e-01       6.992450502865e+02 
       3.490832167163e-01       6.671500807537e+02 
       3.612053845819e-01       6.390890130477e+02 
       3.738627015438e-01       6.134676346075e+02 
       3.871054313577e-01       5.877069767404e+02 
       4.009933304115e-01       5.614606937244e+02 
       4.155981678044e-01       5.365141159049e+02 
       4.310071368734e-01       5.137068257461e+02 
       4.473275629334e-01       4.917653443379e+02 
       4.646935405146e-01       4.697320007978e+02 
       4.832755199744e-01       4.483757088779e+02 
       5.032945404984e-01       4.280459960454e+02 
       5.250440399017e-01       4.078885089427e+02 
       5.489245203302e-01       3.878650277081e+02 
       5.755010531772e-01       3.681323373819e+02 
       6.056035849376e-01       3.481311456382e+02 
       6.405125788886e-01       3.277492310531e+02 
       6.823272645094e-01       3.064411946429e+02 
       7.347554398745e-01       2.835676281176e+02 
       8.049389697316e-01       2.579928314052e+02 
       9.077257429936e-01       2.279731759564e+02 
       1.072428160648e+00       1.917821578180e+02 
       1.329180061712e+00       1.522573399167e+02 
       1.671935941556e+00       1.167495434911e+02 
       2.104822811812e+00       8.697855324523e+01 
       2.649814872914e+00       6.262940213155e+01 
       3.335919280043e+00       4.347463116848e+01 
       4.199673553341e+00       2.913985033594e+01 
       5.287075757540e+00       1.894468977816e+01 
       6.656034025249e+00       1.201063791191e+01 
       8.379450376152e+00       7.463700336658e+00 
       1.054910301541e+01       4.566718123057e+00 
