# Matter power spectrum P(k) at redshift z=1
# for k=2.21134e-07 to 11.0957 h/Mpc,
# number of wavenumbers equal to 139
#    1:k (h/Mpc)              2:P (Mpc/h)^3        
       2.211340602511e-07       2.386804562591e-01 
       2.783912878633e-07       2.979935466927e-01 
       3.504738667133e-07       3.720461877723e-01 
       4.412204569751e-07       4.645012193479e-01 
       5.554636454894e-07       5.799317120941e-01 
       6.992872986344e-07       7.240471636424e-01 
       8.803505503958e-07       9.039759052351e-01 
       1.108295679180e-06       1.128617687323e+00 
       1.395261594302e-06       1.409083883796e+00 
       1.756530277167e-06       1.759247088035e+00 
       2.211340602511e-06       2.196427284214e+00 
       2.783912878633e-06       2.742248531586e+00 
       3.504738667133e-06       3.423708532225e+00 
       4.412204569751e-06       4.274513978510e+00 
       5.554636454894e-06       5.336747713885e+00 
       6.992872986344e-06       6.662950141221e+00 
       8.803505503958e-06       8.318717772587e+00 
       1.108295679180e-05       1.038594733185e+01 
       1.395261594302e-05       1.296688565110e+01 
       1.756530277167e-05       1.618918521825e+01 
       2.211340602511e-05       2.021221454629e+01 
       2.783912878633e-05       2.523493372228e+01 
       3.504738667133e-05       3.150572117649e+01 
       4.412204569751e-05       3.933463081137e+01 
       5.554636454894e-05       4.910867210103e+01 
       6.992872986344e-05       6.131084198330e+01 
       8.803505503958e-05       7.654379684522e+01 
       1.108295679180e-04       9.555923119903e+01 
       1.395261594302e-04       1.192942123968e+02 
       1.756530277167e-04       1.489158729108e+02 
       2.211340602511e-04       1.858759111805e+02 
       2.783912878633e-04       2.319761642592e+02 
       3.504738667133e-04       2.894458687637e+02 
       4.412204569751e-04       3.610298236304e+02 
       5.554636454894e-04       4.500842709696e+02 
       6.992872986344e-04       5.606740855778e+02 
       8.803505503958e-04       6.976614980987e+02 
       1.108295679180e-03       8.667718057233e+02 
       1.395261594302e-03       1.074604179101e+03 
       1.756530277167e-03       1.328509488859e+03 
       2.211340602511e-03       1.636219122748e+03 
       2.783912878633e-03       2.005162814047e+03 
       3.504738667133e-03       2.441311539226e+03 
       4.412204569751e-03       2.947398543580e+03 
       5.554636454894e-03       3.513533236496e+03 
       6.992872986344e-03       4.137221140297e+03 
       8.803505503958e-03       4.786677050151e+03 
       1.108295679180e-02       5.414719053610e+03 
       1.395261594302e-02       5.949288058625e+03 
       1.756530277136e-02       6.293344365160e+03 
       2.211340495658e-02       6.339906546328e+03 
       2.783861797171e-02       6.017912103281e+03 
       3.499899075466e-02       5.375103455104e+03 
       4.299112203956e-02       4.688583266492e+03 
       4.915072424710e-02       4.283283420267e+03 
       5.375874817342e-02       4.049693789871e+03 
       5.765522489294e-02       3.885429093845e+03 
       6.118097949028e-02       3.752159994291e+03 
       6.449525209807e-02       3.632128028824e+03 
       6.768536383609e-02       3.515724936338e+03 
       7.080502198842e-02       3.397486477263e+03 
       7.389019104942e-02       3.274538161893e+03 
       7.696660972399e-02       3.145882737828e+03 
       8.005372699839e-02       3.011991820213e+03 
       8.316692809195e-02       2.874492541009e+03 
       8.631887197563e-02       2.735862328142e+03 
       8.952033524239e-02       2.599100541911e+03 
       9.278076619453e-02       2.467378038014e+03 
       9.610866083437e-02       2.343682212519e+03 
       9.951182503923e-02       2.230483558695e+03 
       1.029975614989e-01       2.129450051797e+03 
       1.065728054207e-01       2.041231898267e+03 
       1.102442244221e-01       1.965334571303e+03 
       1.140182928094e-01       1.900098230585e+03 
       1.179013471718e-01       1.842805821126e+03 
       1.218996281320e-01       1.789946245247e+03 
       1.260193117318e-01       1.737650310048e+03 
       1.302665330331e-01       1.682285267491e+03 
       1.346474039173e-01       1.621133593399e+03 
       1.391680266684e-01       1.553010926448e+03 
       1.438345046600e-01       1.478632582125e+03 
       1.486529512954e-01       1.400559602933e+03 
       1.536294982360e-01       1.322662244553e+03 
       1.587703038829e-01       1.249198147874e+03 
       1.640815630340e-01       1.183742673644e+03 
       1.695695186076e-01       1.128259103108e+03 
       1.752404763105e-01       1.082550646261e+03 
       1.811008231117e-01       1.044249251909e+03 
       1.871570503798e-01       1.009415860016e+03 
       1.934157825347e-01       9.737165702531e+02 
       1.998838120740e-01       9.339180976286e+02 
       2.065681418480e-01       8.891540209985e+02 
       2.134760354979e-01       8.412989684027e+02 
       2.206150770383e-01       7.941124017978e+02 
       2.279932406728e-01       7.514812160292e+02 
       2.356189720958e-01       7.156192732140e+02 
       2.435012827723e-01       6.860900411929e+02 
       2.516498590162e-01       6.601132545520e+02 
       2.600751881414e-01       6.340862126693e+02 
       2.687887045690e-01       6.056405277885e+02 
       2.778029595795e-01       5.750105543509e+02 
       2.871318194718e-01       5.446667021922e+02 
       2.967906983031e-01       5.173870192969e+02 
       3.067968332596e-01       4.942150596917e+02 
       3.171696132118e-01       4.738335826764e+02 
       3.279309743744e-01       4.538073049992e+02 
       3.391058815720e-01       4.327134286317e+02 
       3.507229199177e-01       4.112621600831e+02 
       3.628150305071e-01       3.912731236653e+02 
       3.754204361952e-01       3.736087604125e+02 
       3.885838214558e-01       3.573471236652e+02 
       4.023578565889e-01       3.410726507801e+02 
       4.168051957448e-01       3.246394858639e+02 
       4.320011379626e-01       3.090565614169e+02 
       4.480372335182e-01       2.947542866163e+02 
       4.650262666616e-01       2.809838223991e+02 
       4.831092903104e-01       2.672291613018e+02 
       5.024658027240e-01       2.539530194903e+02 
       5.233288837392e-01       2.413255708800e+02 
       5.460084367660e-01       2.288418705561e+02 
       5.709282200829e-01       2.165099820988e+02 
       5.986874497702e-01       2.044078035990e+02 
       6.301686123135e-01       1.922090365684e+02 
       6.667377840521e-01       1.798658254466e+02 
       7.106438048543e-01       1.670635945335e+02 
       7.658785917245e-01       1.534587072489e+02 
       8.401728985677e-01       1.384463299760e+02 
       9.496427409782e-01       1.211533782640e+02 
       1.125649079568e+00       1.009388865949e+02 
       1.397812730933e+00       7.987539917485e+01 
       1.758569210758e+00       6.164791688044e+01 
       2.213892384564e+00       4.658577532622e+01 
       2.787125346438e+00       3.423162007523e+01 
       3.508782924475e+00       2.432709601606e+01 
       4.417295988091e+00       1.668103051896e+01 
       5.561046170825e+00       1.105251232769e+01 
       7.000942340612e+00       7.106812707976e+00 
       8.813664219102e+00       4.458043229905e+00 
       1.109574585645e+01       2.741999806557e+00 
