# Matter power spectrum P(k) at redshift z=2.5
# for k=1.80241e-07 to 11.3874 h/Mpc,
# number of wavenumbers equal to 140
#    1:k (h/Mpc)              2:P (Mpc/h)^3        
       1.802406768921e-07       3.629676236126e-01 
       2.269095683785e-07       4.514793465161e-01 
       2.856622218109e-07       5.615751570982e-01 
       3.596274302273e-07       6.985184582236e-01 
       4.527441106914e-07       8.688561628124e-01 
       5.699710659895e-07       1.080731685791e+00 
       7.175510589616e-07       1.344274259175e+00 
       9.033432623866e-07       1.672083184740e+00 
       1.137241788592e-06       2.079830172125e+00 
       1.431702587012e-06       2.587008562768e+00 
       1.802406768921e-06       3.217865247839e+00 
       2.269095683785e-06       4.002559838684e+00 
       2.856622218109e-06       4.978606496512e+00 
       3.596274302273e-06       6.192667339447e+00 
       4.527441106914e-06       7.702783136476e+00 
       5.699710659895e-06       9.581147898410e+00 
       7.175510589616e-06       1.191755989389e+01 
       9.033432623866e-06       1.482371390884e+01 
       1.137241788592e-05       1.843853958296e+01 
       1.431702587012e-05       2.293484027885e+01 
       1.802406768921e-05       2.852754848871e+01 
       2.269095683785e-05       3.548398957880e+01 
       2.856622218109e-05       4.413663903438e+01 
       3.596274302273e-05       5.489897212433e+01 
       4.527441106914e-05       6.828514215391e+01 
       5.699710659895e-05       8.493438576586e+01 
       7.175510589616e-05       1.056412385709e+02 
       9.033432623866e-05       1.313928426306e+02 
       1.137241788592e-04       1.634148102193e+02 
       1.431702587012e-04       2.032272166414e+02 
       1.802406768921e-04       2.527122042966e+02 
       2.269095683785e-04       3.141941576799e+02 
       2.856622218109e-04       3.905320527882e+02 
       3.596274302273e-04       4.852207881155e+02 
       4.527441106914e-04       6.024933997375e+02 
       5.699710659895e-04       7.474089425361e+02 
       7.175510589616e-04       9.259033129390e+02 
       9.033432623866e-04       1.144776478363e+03 
       1.137241788592e-03       1.411586471448e+03 
       1.431702587012e-03       1.734380722120e+03 
       1.802406768921e-03       2.121074292399e+03 
       2.269095683785e-03       2.578265741652e+03 
       2.856622218109e-03       3.109550128603e+03 
       3.596274302273e-03       3.713149586318e+03 
       4.527441106914e-03       4.375008397260e+03 
       5.699710659895e-03       5.077472699539e+03 
       7.175510589617e-03       5.777360506051e+03 
       9.033432623866e-03       6.411876021040e+03 
       1.137241788592e-02       6.893711657691e+03 
       1.431702586928e-02       7.116319242023e+03 
       1.802406551408e-02       6.978379434377e+03 
       2.269013901056e-02       6.441136029425e+03 
       2.850256806132e-02       5.615531718555e+03 
       3.473770380922e-02       4.856228897559e+03 
       3.937535556422e-02       4.437881489317e+03 
       4.291236300852e-02       4.189011302222e+03 
       4.593925226532e-02       4.007676807479e+03 
       4.869595646371e-02       3.856066805562e+03 
       5.129739384670e-02       3.716715655446e+03 
       5.380772718304e-02       3.580443889359e+03 
       5.626693897412e-02       3.442374560126e+03 
       5.870207211998e-02       3.300325889744e+03 
       6.113263665234e-02       3.154026116462e+03 
       6.357347417622e-02       3.004622721737e+03 
       6.603639264485e-02       2.854288598467e+03 
       6.853115584121e-02       2.705847331024e+03 
       7.106611137513e-02       2.562395927922e+03 
       7.364860504373e-02       2.426932854221e+03 
       7.628526314309e-02       2.302012041699e+03 
       7.898218997731e-02       2.189445981992e+03 
       8.174510906845e-02       2.090079690560e+03 
       8.457946588510e-02       2.003652931508e+03 
       8.749050358236e-02       1.928764547298e+03 
       9.048331938254e-02       1.862957772044e+03 
       9.356290680047e-02       1.802948562452e+03 
       9.673418736221e-02       1.745011553863e+03 
       1.000020344500e-01       1.685516998664e+03 
       1.033712912353e-01       1.621559724549e+03 
       1.068467842165e-01       1.551560962637e+03 
       1.104333335775e-01       1.475673557212e+03 
       1.141357613910e-01       1.395830110864e+03 
       1.179588985566e-01       1.315351194659e+03 
       1.219075912847e-01       1.238168307665e+03 
       1.259867078807e-01       1.167850016122e+03 
       1.302011465556e-01       1.106691191449e+03 
       1.345558449649e-01       1.055105324800e+03 
       1.390557921661e-01       1.011483769499e+03 
       1.437060436761e-01       9.726032132352e+02 
       1.485117403044e-01       9.345627441179e+02 
       1.534781314345e-01       8.940642231367e+02 
       1.586106034348e-01       8.496150056780e+02 
       1.639147138918e-01       8.020981645194e+02 
       1.693962323939e-01       7.543331167942e+02 
       1.750611886510e-01       7.097488163939e+02 
       1.809159288237e-01       6.707937571221e+02 
       1.869671810747e-01       6.378506945896e+02 
       1.932221315522e-01       6.091657796782e+02 
       1.996885122842e-01       5.818482495305e+02 
       2.063747028409e-01       5.534918079069e+02 
       2.132898481162e-01       5.235190121301e+02 
       2.204439952493e-01       4.933407396060e+02 
       2.278482535771e-01       4.651693641636e+02 
       2.355149826786e-01       4.403568071420e+02 
       2.434580151043e-01       4.184970723276e+02 
       2.516929224474e-01       3.979309178211e+02 
       2.602373361831e-01       3.772129942843e+02 
       2.691113384813e-01       3.562744878327e+02 
       2.783379434039e-01       3.362071727882e+02 
       2.879436961842e-01       3.179437494888e+02 
       2.979594286172e-01       3.012791910689e+02 
       3.084212235036e-01       2.852644130597e+02 
       3.193716629793e-01       2.694024962868e+02 
       3.308614683239e-01       2.540988492325e+02 
       3.429516889070e-01       2.398393079596e+02 
       3.557166762210e-01       2.264112472092e+02 
       3.692482045226e-01       2.133420955380e+02 
       3.836613067926e-01       2.006620489611e+02 
       3.991027475374e-01       1.885970118751e+02 
       4.157636764868e-01       1.769723544331e+02 
       4.338991506589e-01       1.656025977514e+02 
       4.538594103308e-01       1.545535501861e+02 
       4.761422446480e-01       1.437009780881e+02 
       5.014853378284e-01       1.329222609649e+02 
       5.310393953907e-01       1.221095086529e+02 
       5.667167113156e-01       1.110577638943e+02 
       6.119506686650e-01       9.949613042707e+01 
       6.734707959947e-01       8.702112097205e+01 
       7.653690198619e-01       7.315282662542e+01 
       9.139825917784e-01       5.800944323655e+01 
       1.139189172071e+00       4.396742180092e+01 
       1.433594792348e+00       3.312555146549e+01 
       1.804783113649e+00       2.490109653352e+01 
       2.272087314014e+00       1.853861330874e+01 
       2.860388457425e+00       1.357539416951e+01 
       3.601015716655e+00       9.724436800656e+00 
       4.533410193967e+00       6.787090411530e+00 
       5.707225295271e+00       4.603715175214e+00 
       7.184970955052e+00       3.032145813875e+00 
       9.045342518318e+00       1.941518990436e+00 
       1.138741155469e+01       1.212481324197e+00 
