# Matter power spectrum P(k) at redshift z=2
# for k=1.91994e-07 to 12.1274 h/Mpc,
# number of wavenumbers equal to 140
#    1:k (h/Mpc)              2:P (Mpc/h)^3        
       1.919936444320e-07       3.051691692209e-01 
       2.417056778784e-07       3.811629285803e-01 
       3.042894200561e-07       4.760807865730e-01 
       3.830776834487e-07       5.946352549846e-01 
       4.822662303848e-07       7.427123636843e-01 
       6.071372126816e-07       9.276638914462e-01 
       7.643404654908e-07       1.158672369287e+00 
       9.622476352689e-07       1.447206976987e+00 
       1.211398000479e-06       1.807592967231e+00 
       1.525059726600e-06       2.257722887346e+00 
       1.919936444320e-06       2.819944909001e+00 
       2.417056778784e-06       3.522172366870e+00 
       3.042894200561e-06       4.399269586771e+00 
       3.830776834487e-06       5.494782798765e+00 
       4.822662303848e-06       6.863102051179e+00 
       6.071372126816e-06       8.572161419276e+00 
       7.643404654908e-06       1.070681148970e+01 
       9.622476352689e-06       1.337303140294e+01 
       1.211398000479e-05       1.670318925244e+01 
       1.525059726600e-05       2.086261139976e+01 
       1.919936444320e-05       2.605778561959e+01 
       2.417056778784e-05       3.254660291856e+01 
       3.042894200561e-05       4.065114168475e+01 
       3.830776834487e-05       5.077361936863e+01 
       4.822662303848e-05       6.341628481696e+01 
       6.071372126816e-05       7.920620162448e+01 
       7.643404654908e-05       9.892607970970e+01 
       9.622476352689e-05       1.235525412955e+02 
       1.211398000479e-04       1.543034381584e+02 
       1.525059726600e-04       1.926960172809e+02 
       1.919936444320e-04       2.406177560018e+02 
       2.417056778784e-04       3.004113508537e+02 
       3.042894200561e-04       3.749742930842e+02 
       3.830776834487e-04       4.678711716441e+02 
       4.822662303848e-04       5.834527436981e+02 
       6.071372126816e-04       7.269698532715e+02 
       7.643404654908e-04       9.046639393882e+02 
       9.622476352689e-04       1.123811515013e+03 
       1.211398000479e-03       1.392690610098e+03 
       1.525059726600e-03       1.720382723180e+03 
       1.919936444320e-03       2.116222040339e+03 
       2.417056778784e-03       2.588737894018e+03 
       3.042894200561e-03       3.144005871359e+03 
       3.830776834487e-03       3.783208546134e+03 
       4.822662303848e-03       4.498987180410e+03 
       6.071372126816e-03       5.270581087005e+03 
       7.643404654908e-03       6.057645066632e+03 
       9.622476352689e-03       6.793025805811e+03 
       1.211398000479e-02       7.376593151392e+03 
       1.525059726581e-02       7.676615504819e+03 
       1.919936374015e-02       7.553903088061e+03 
       2.417020651842e-02       6.931071416532e+03 
       3.039263617301e-02       5.911148443521e+03 
       3.740986404565e-02       4.911321170425e+03 
       4.288607191690e-02       4.366108013479e+03 
       4.696021852938e-02       4.081871718479e+03 
       5.039237081579e-02       3.899195670328e+03 
       5.349174037539e-02       3.760838931167e+03 
       5.640172329714e-02       3.640693034158e+03 
       5.920052228611e-02       3.524560188005e+03 
       6.193604625109e-02       3.404185961204e+03 
       6.464028025589e-02       3.275035646276e+03 
       6.733605981130e-02       3.135323877684e+03 
       7.004060551451e-02       2.985481554541e+03 
       7.276751648613e-02       2.827742239418e+03 
       7.552796555204e-02       2.665714304043e+03 
       7.833145196855e-02       2.503897297169e+03 
       8.118629494027e-02       2.347150340737e+03 
       8.409996810444e-02       2.200149465485e+03 
       8.707933253110e-02       2.066883502697e+03 
       9.013080272316e-02       1.950233369034e+03 
       9.326046704437e-02       1.851661390693e+03 
       9.647417632384e-02       1.771021003149e+03 
       9.977760971828e-02       1.706489787755e+03 
       1.031763239974e-01       1.654640313431e+03 
       1.066757905536e-01       1.610690282409e+03 
       1.102814232230e-01       1.568992964820e+03 
       1.139985992059e-01       1.523808197615e+03 
       1.178326748403e-01       1.470309631732e+03 
       1.217889976298e-01       1.405646879631e+03 
       1.258729156914e-01       1.329752312867e+03 
       1.300897856325e-01       1.245555330675e+03 
       1.344449797700e-01       1.158404947205e+03 
       1.389438935384e-01       1.074781960941e+03 
       1.435919538943e-01       1.000661353466e+03 
       1.483946295028e-01       9.400031409500e+02 
       1.533574434710e-01       8.937513251083e+02 
       1.584859893883e-01       8.595332132855e+02 
       1.637859514211e-01       8.321546908580e+02 
       1.692631292110e-01       8.049713485975e+02 
       1.749234683275e-01       7.720342863229e+02 
       1.807730970420e-01       7.303945907898e+02 
       1.868183702211e-01       6.814385111325e+02 
       1.930659211970e-01       6.302928349036e+02 
       1.995227225637e-01       5.833942506942e+02 
       2.061961569920e-01       5.454709236595e+02 
       2.130940993573e-01       5.174430547689e+02 
       2.202250117649e-01       4.961241030544e+02 
       2.275980534467e-01       4.758883905471e+02 
       2.352232080296e-01       4.517896809834e+02 
       2.431114313780e-01       4.225502224532e+02 
       2.512748241387e-01       3.912250914562e+02 
       2.597268343404e-01       3.627577073439e+02 
       2.684824970288e-01       3.402679949645e+02 
       2.775587200815e-01       3.229143556297e+02 
       2.869746282640e-01       3.068436896860e+02 
       2.967519815528e-01       2.885817407797e+02 
       3.069156892017e-01       2.680897316953e+02 
       3.174944486342e-01       2.483979109123e+02 
       3.285215490087e-01       2.320949401423e+02 
       3.400358947833e-01       2.185744808073e+02 
       3.520833272659e-01       2.050989174317e+02 
       3.647183559219e-01       1.903875713519e+02 
       3.780064626493e-01       1.760324034506e+02 
       3.920272223263e-01       1.636943104597e+02 
       4.068786108021e-01       1.525016152079e+02 
       4.226830813744e-01       1.408953552153e+02 
       4.395963460917e-01       1.294565708819e+02 
       4.578204210014e-01       1.191889383948e+02 
       4.776236298207e-01       1.092280959564e+02 
       4.993724246116e-01       9.923937660130e+01 
       5.235842213271e-01       8.986980243915e+01 
       5.510196639417e-01       8.054863449812e+01 
       5.828536078572e-01       7.139916951528e+01 
       6.210148098718e-01       6.221211890462e+01 
       6.689156752900e-01       5.289302638983e+01 
       7.331410618076e-01       4.319707141106e+01 
       8.273940109698e-01       3.296530241545e+01 
       9.786020253048e-01       2.252251454783e+01 
       1.213693488692e+00       1.369225540178e+01 
       1.526763230643e+00       7.973729599568e+00 
       1.922064780162e+00       4.591117031896e+00 
       2.419736153679e+00       2.620700004236e+00 
       3.046267333690e+00       1.484304170577e+00 
       3.835023357500e+00       8.347367976836e-01 
       4.828008359581e+00       4.664163732564e-01 
       6.078102412232e+00       2.590833447479e-01 
       7.651877582246e+00       1.431401198625e-01 
       9.633143136227e+00       7.869151311624e-02 
       1.212740868965e+01       4.306285694350e-02 
