# Matter power spectrum P(k) at redshift z=0
# for k=2.29053e-07 to 11.4916 h/Mpc,
# number of wavenumbers equal to 139
#    1:k (h/Mpc)              2:P (Mpc/h)^3        
       2.290527870989e-07       1.452174060539e+00 
       2.883603743211e-07       1.800315724026e+00 
       3.630242029873e-07       2.231920258804e+00 
       4.570203942371e-07       2.766996906400e+00 
       5.753545880132e-07       3.430351887944e+00 
       7.243285116422e-07       4.252738422555e+00 
       9.118755697934e-07       5.272282448671e+00 
       1.147983327207e-06       6.536250143062e+00 
       1.445225382937e-06       8.103239178605e+00 
       1.819430960350e-06       1.004589530434e+01 
       2.290527870989e-06       1.245428017850e+01 
       2.883603743211e-06       1.544004657606e+01 
       3.630242029873e-06       1.914161450153e+01 
       4.570203942371e-06       2.373058811373e+01 
       5.753545880132e-06       2.941971083589e+01 
       7.243285116422e-06       3.647272722394e+01 
       9.118755697934e-06       4.521660834496e+01 
       1.147983327207e-05       5.605670654682e+01 
       1.445225382937e-05       6.949554048905e+01 
       1.819430960350e-05       8.615607789663e+01 
       2.290527870989e-05       1.068105887773e+02 
       2.883603743211e-05       1.324163936701e+02 
       3.630242029873e-05       1.641601385350e+02 
       4.570203942371e-05       2.035125985560e+02 
       5.753545880132e-05       2.522964530074e+02 
       7.243285116422e-05       3.127699804958e+02 
       9.118755697934e-05       3.877301791528e+02 
       1.147983327207e-04       4.806393637174e+02 
       1.445225382937e-04       5.957797053861e+02 
       1.819430960350e-04       7.384402084805e+02 
       2.290527870989e-04       9.151398036841e+02 
       2.883603743211e-04       1.133887851572e+03 
       3.630242029873e-04       1.404478455969e+03 
       4.570203942371e-04       1.738806914122e+03 
       5.753545880132e-04       2.151185971243e+03 
       7.243285116422e-04       2.658627763263e+03 
       9.118755697934e-04       3.281037124997e+03 
       1.147983327207e-03       4.041195332222e+03 
       1.445225382937e-03       4.964271820662e+03 
       1.819430960350e-03       6.076549038366e+03 
       2.290527870989e-03       7.403102589214e+03 
       2.883603743211e-03       8.963912571453e+03 
       3.630242029873e-03       1.076807028066e+04 
       4.570203942371e-03       1.280593482780e+04 
       5.753545880132e-03       1.496032641602e+04 
       7.243285116422e-03       1.727377144800e+04 
       9.118755697934e-03       1.955808805812e+04 
       1.147983327207e-02       2.161546351532e+04 
       1.445225382937e-02       2.318306355765e+04 
       1.819430960341e-02       2.395120681672e+04 
       2.290527830535e-02       2.362676388929e+04 
       2.883578636011e-02       2.207384423088e+04 
       3.627299229470e-02       1.952874792720e+04 
       4.486075411550e-02       1.686590189852e+04 
       5.180639095827e-02       1.523003831136e+04 
       5.690458626146e-02       1.429276505133e+04 
       6.115624535014e-02       1.362667198739e+04 
       6.497502199595e-02       1.307975680503e+04 
       6.854906527377e-02       1.258673413489e+04 
       7.197951107362e-02       1.211495980899e+04 
       7.532767636541e-02       1.164757886057e+04 
       7.863417579957e-02       1.117701663650e+04 
       8.192782369997e-02       1.070190704255e+04 
       8.523023598313e-02       1.022526767365e+04 
       8.855840688690e-02       9.753119505509e+03 
       9.192624504315e-02       9.293247888524e+03 
       9.534553641081e-02       8.854016509528e+03 
       9.882657320841e-02       8.443245670428e+03 
       1.023785788328e-01       8.067209426506e+03 
       1.060100030856e-01       7.729814601786e+03 
       1.097287320593e-01       7.432013990538e+03 
       1.135422401473e-01       7.171500616569e+03 
       1.174577017417e-01       6.942726830804e+03 
       1.214820741866e-01       6.737305101088e+03 
       1.256221598209e-01       6.544855851071e+03 
       1.298846525558e-01       6.354330505939e+03 
       1.342761728880e-01       6.155740767752e+03 
       1.388032942255e-01       5.942046827283e+03 
       1.434725627269e-01       5.710765327229e+03 
       1.482905124012e-01       5.464759037285e+03 
       1.532636769178e-01       5.211785737174e+03 
       1.583985993769e-01       4.962733860862e+03 
       1.637018411634e-01       4.728931323686e+03 
       1.691799909271e-01       4.519251736662e+03 
       1.748396746806e-01       4.337803963081e+03 
       1.806875679746e-01       4.182806887825e+03 
       1.867304110894e-01       4.046988611598e+03 
       1.929750281706e-01       3.919595210333e+03 
       1.994283512237e-01       3.789730178077e+03 
       2.060974498829e-01       3.650136074819e+03 
       2.129895678701e-01       3.499906545282e+03 
       2.201121670785e-01       3.344643258580e+03 
       2.274729802510e-01       3.193680551125e+03 
       2.350800732912e-01       3.055639333902e+03 
       2.429419183528e-01       2.934521852001e+03 
       2.510674790209e-01       2.828200933429e+03 
       2.594663091367e-01       2.729957642848e+03 
       2.681486671594e-01       2.632339021468e+03 
       2.771256484207e-01       2.531325674753e+03 
       2.864093382506e-01       2.428246536454e+03 
       2.960129897877e-01       2.328091000213e+03 
       3.059512313829e-01       2.235503714553e+03 
       3.162403099641e-01       2.151518531330e+03 
       3.268983786527e-01       2.073354098811e+03 
       3.379458394958e-01       1.997140082818e+03 
       3.494057556281e-01       1.921144568643e+03 
       3.613043518648e-01       1.846663561996e+03 
       3.736716291713e-01       1.775980079363e+03 
       3.865421274219e-01       1.709767104696e+03 
       3.999558835387e-01       1.646669505670e+03 
       4.139596503008e-01       1.585149917393e+03 
       4.286084677025e-01       1.525107405720e+03 
       4.439677183035e-01       1.467345585042e+03 
       4.601158581211e-01       1.412016851491e+03 
       4.771481079674e-01       1.358406192552e+03 
       4.951815387766e-01       1.306034173424e+03 
       5.143622276954e-01       1.255003280619e+03 
       5.348755720853e-01       1.205223888550e+03 
       5.569615651901e-01       1.156243047577e+03 
       5.809381379977e-01       1.107766055186e+03 
       6.072381391374e-01       1.059514012219e+03 
       6.364704444641e-01       1.010967468629e+03 
       6.695260711164e-01       9.615293063106e+02 
       7.077735282313e-01       9.103404492231e+02 
       7.534439453602e-01       8.561125497936e+02 
       8.104515755166e-01       7.967981090295e+02 
       8.862802347456e-01       7.289380936434e+02 
       9.964213935917e-01       6.466474111681e+02 
       1.171969960017e+00       5.422820130931e+02 
       1.448379963904e+00       4.199387402500e+02 
       1.821329077766e+00       3.056227398083e+02 
       2.292884114145e+00       2.126098193201e+02 
       2.886569975391e+00       1.424363896308e+02 
       3.633976294900e+00       9.261901963332e+01 
       4.574905103507e+00       5.887637339526e+01 
       5.759464291352e+00       3.680533498020e+01 
       7.250735954704e+00       2.272969900935e+01 
       9.128135747586e+00       1.391440556172e+01 
       1.149164205494e+01       8.464375120685e+00 
