# Matter power spectrum P(k) at redshift z=2.5
# for k=1.85536e-07 to 11.7186 h/Mpc,
# number of wavenumbers equal to 140
#    1:k (h/Mpc)              2:P (Mpc/h)^3        
       1.855364609136e-07       3.719965831233e-01 
       2.335765654584e-07       4.613058376890e-01 
       2.940554738552e-07       5.720565334840e-01 
       3.701939085135e-07       7.093963497764e-01 
       4.660465187191e-07       8.797088246778e-01 
       5.867178054937e-07       1.090910061182e+00 
       7.386339548881e-07       1.352816666199e+00 
       9.298850558227e-07       1.677602024271e+00 
       1.170655926823e-06       2.080362113417e+00 
       1.473768494745e-06       2.579817160317e+00 
       1.855364609136e-06       3.199181748543e+00 
       2.335765654584e-06       3.967243813839e+00 
       2.940554738552e-06       4.919702678292e+00 
       3.701939085135e-06       6.100828295697e+00 
       4.660465187191e-06       7.565518807980e+00 
       5.867178054937e-06       9.381851998907e+00 
       7.386339548881e-06       1.163424913067e+01 
       9.298850558227e-06       1.442739802848e+01 
       1.170655926823e-05       1.789111739096e+01 
       1.473768494745e-05       2.218638763420e+01 
       1.855364609136e-05       2.751282715252e+01 
       2.335765654584e-05       3.411795859211e+01 
       2.940554738552e-05       4.230869013114e+01 
       3.701939085135e-05       5.246553432738e+01 
       4.660465187191e-05       6.506020349282e+01 
       5.867178054937e-05       8.067735668764e+01 
       7.386339548881e-05       1.000414249773e+02 
       9.298850558227e-05       1.240495979837e+02 
       1.170655926823e-04       1.538121853476e+02 
       1.473768494745e-04       1.907016103770e+02 
       1.855364609136e-04       2.364111248773e+02 
       2.335765654584e-04       2.930237231101e+02 
       2.940554738552e-04       3.630902869101e+02 
       3.701939085135e-04       4.497131332531e+02 
       4.660465187191e-04       5.566262533743e+02 
       5.867178054937e-04       6.882566513219e+02 
       7.386339548881e-04       8.497443696459e+02 
       9.298850558227e-04       1.046896496892e+03 
       1.170655926823e-03       1.286050099539e+03 
       1.473768494745e-03       1.573782912618e+03 
       1.855364609136e-03       1.916287977168e+03 
       2.335765654585e-03       2.318230717015e+03 
       2.940554738552e-03       2.781173879347e+03 
       3.701939085135e-03       3.301462068681e+03 
       4.660465187191e-03       3.865704509282e+03 
       5.867178054937e-03       4.452841748791e+03 
       7.386339548881e-03       5.022574360974e+03 
       9.298850558227e-03       5.515975011836e+03 
       1.170655926823e-02       5.852190180425e+03 
       1.473768494738e-02       5.933086030787e+03 
       1.855364577552e-02       5.665930696998e+03 
       2.335745866024e-02       5.018814978628e+03 
       2.938217323839e-02       4.105081152562e+03 
       3.634636425234e-02       3.257625381670e+03 
       4.198957637619e-02       2.811360961499e+03 
       4.612916520727e-02       2.597309516107e+03 
       4.957959627415e-02       2.468015592436e+03 
       5.267786552624e-02       2.373720800522e+03 
       5.557710616077e-02       2.292955687790e+03 
       5.835957171777e-02       2.214534286942e+03 
       6.107510491657e-02       2.132228709936e+03 
       6.375670706081e-02       2.042839503286e+03 
       6.642778372381e-02       1.945355924247e+03 
       6.910588868209e-02       1.840483646220e+03 
       7.180481947674e-02       1.730268767789e+03 
       7.453586628682e-02       1.617714982716e+03 
       7.730859464006e-02       1.506368024792e+03 
       8.013135653671e-02       1.399882268919e+03 
       8.301163571967e-02       1.301607635509e+03 
       8.595628753093e-02       1.214236794821e+03 
       8.897170941560e-02       1.139542405169e+03 
       9.206396439836e-02       1.078213051738e+03 
       9.523887180894e-02       1.029779204418e+03 
       9.850207465769e-02       9.926172720246e+02 
       1.018590900250e-01       9.640335860592e+02 
       1.053153468907e-01       9.404612447726e+02 
       1.088762145706e-01       9.178218344358e+02 
       1.125470240974e-01       8.920883349989e+02 
       1.163330843331e-01       8.600137178879e+02 
       1.202396942314e-01       8.198761635056e+02 
       1.242721524263e-01       7.719973707591e+02 
       1.284357651617e-01       7.187859026624e+02 
       1.327358534733e-01       6.641960501291e+02 
       1.371777604691e-01       6.127225065019e+02 
       1.417668595113e-01       5.682481723263e+02 
       1.465085640798e-01       5.330942031546e+02 
       1.514083400780e-01       5.074874365628e+02 
       1.564717213323e-01       4.894986471739e+02 
       1.617043290292e-01       4.754656597017e+02 
       1.671118958315e-01       4.609555506791e+02 
       1.727002954153e-01       4.422086795557e+02 
       1.784755781869e-01       4.176245056331e+02 
       1.844440139661e-01       3.884951141306e+02 
       1.906121424760e-01       3.583914668868e+02 
       1.969868325696e-01       3.314212385319e+02 
       2.035753512558e-01       3.103166362491e+02 
       2.103854437836e-01       2.952957216958e+02 
       2.174254263171e-01       2.840964833126e+02 
       2.247042931108e-01       2.731607350985e+02 
       2.322318405960e-01       2.596030950599e+02 
       2.400188114687e-01       2.429450393435e+02 
       2.480770627532e-01       2.252757701093e+02 
       2.564197629992e-01       2.095573447778e+02 
       2.650616253263e-01       1.974209869588e+02 
       2.740191851149e-01       1.881277924656e+02 
       2.833111339335e-01       1.793532823656e+02 
       2.929587250906e-01       1.692227563539e+02 
       3.029862714154e-01       1.579189132987e+02 
       3.134217631292e-01       1.472203458712e+02 
       3.242976439367e-01       1.384463171783e+02 
       3.356517981932e-01       1.311100296473e+02 
       3.475288235256e-01       1.237157557443e+02 
       3.599816953028e-01       1.156954106450e+02 
       3.730739779896e-01       1.079530981952e+02 
       3.868828139471e-01       1.012793817311e+02 
       4.015030404942e-01       9.515622081991e+01 
       4.170529827775e-01       8.883726494410e+01 
       4.336828018840e-01       8.265308852072e+01 
       4.515868570504e-01       7.704972934700e+01 
       4.710225923768e-01       7.159476813856e+01 
       4.923404525460e-01       6.615233213755e+01 
       5.160333071748e-01       6.099773414114e+01 
       5.428222502243e-01       5.586679890711e+01 
       5.738145009018e-01       5.079566480814e+01 
       6.108145828194e-01       4.567717136566e+01 
       6.569870066728e-01       4.043142357519e+01 
       7.183793465364e-01       3.489844717308e+01 
       8.075064354705e-01       2.891203281915e+01 
       9.495114404294e-01       2.247214941445e+01 
       1.173234120325e+00       1.641201376653e+01 
       1.475303442951e+00       1.187304229256e+01 
       1.857269259431e+00       8.682724929616e+00 
       2.338163381434e+00       6.386623279901e+00 
       2.943573297777e+00       4.690475369582e+00 
       3.705739226051e+00       3.414399597105e+00 
       4.665249281158e+00       2.447281572577e+00 
       5.873200872404e+00       1.717843228496e+00 
       7.393921826841e+00       1.176497599098e+00 
       9.308396080630e+00       7.846225399356e-01 
       1.171857636895e+01       5.093606955113e-01 
