# Matter power spectrum P(k) at redshift z=1
# for k=1.63313e-07 to 10.3149 h/Mpc,
# number of wavenumbers equal to 140
#    1:k (h/Mpc)              2:P (Mpc/h)^3        
       1.633128944109e-07       8.321889151437e-01 
       2.055987528475e-07       1.037413574111e+00 
       2.588334945929e-07       1.293248328218e+00 
       3.258520637665e-07       1.612174044142e+00 
       4.102234435612e-07       2.009749472605e+00 
       5.164407176129e-07       2.505370279167e+00 
       6.501603430881e-07       3.123215257678e+00 
       8.185033776545e-07       3.893425886266e+00 
       1.030434701769e-06       4.853576768594e+00 
       1.297240431251e-06       6.050508692582e+00 
       1.633128944109e-06       7.542613724734e+00 
       2.055987528475e-06       9.402683805840e+00 
       2.588334945929e-06       1.172146178938e+01 
       3.258520637665e-06       1.461206810902e+01 
       4.102234435612e-06       1.821551892270e+01 
       5.164407176129e-06       2.270760474333e+01 
       6.501603430881e-06       2.830746471380e+01 
       8.185033776545e-06       3.528827405402e+01 
       1.030434701769e-05       4.399056447157e+01 
       1.297240431251e-05       5.483882433104e+01 
       1.633128944109e-05       6.836218230455e+01 
       2.055987528475e-05       8.522017153800e+01 
       2.588334945929e-05       1.062348075342e+02 
       3.258520637665e-05       1.324304978589e+02 
       4.102234435612e-05       1.650836384456e+02 
       5.164407176129e-05       2.057841344948e+02 
       6.501603430881e-05       2.565114908548e+02 
       8.185033776545e-05       3.197284861450e+02 
       1.030434701769e-04       3.984956431094e+02 
       1.297240431251e-04       4.966094609708e+02 
       1.633128944109e-04       6.187661748070e+02 
       2.055987528475e-04       7.707497768799e+02 
       2.588334945929e-04       9.596368906600e+02 
       3.258520637665e-04       1.194000487855e+03 
       4.102234435612e-04       1.484079436360e+03 
       5.164407176129e-04       1.841865750931e+03 
       6.501603430881e-04       2.281054202996e+03 
       8.185033776545e-04       2.816788442185e+03 
       1.030434701769e-03       3.465041661045e+03 
       1.297240431251e-03       4.241235259039e+03 
       1.633128944109e-03       5.157741556046e+03 
       2.055987528475e-03       6.220316287242e+03 
       2.588334945929e-03       7.423318998370e+03 
       3.258520637665e-03       8.743933100329e+03 
       4.102234435612e-03       1.013493870784e+04 
       5.164407176129e-03       1.151086861455e+04 
       6.501603430881e-03       1.276682404170e+04 
       8.185033776545e-03       1.373996487145e+04 
       1.030434701769e-02       1.423324971824e+04 
       1.297240431249e-02       1.403133344781e+04 
       1.633128931386e-02       1.296420540897e+04 
       2.055977787345e-02       1.104126692408e+04 
       2.586980248736e-02       8.627085432004e+03 
       3.213245663708e-02       6.528724949244e+03 
       3.742284594083e-02       5.475886835880e+03 
       4.125775185215e-02       5.019154624029e+03 
       4.441850284252e-02       4.761309448481e+03 
       4.723980839820e-02       4.577173099992e+03 
       4.987072059766e-02       4.416180451945e+03 
       5.239006491702e-02       4.253583133305e+03 
       5.484507740124e-02       4.076806789839e+03 
       5.726677170712e-02       3.880619743406e+03 
       5.967699734568e-02       3.664974151451e+03 
       6.209205085299e-02       3.433686099566e+03 
       6.452468162301e-02       3.193323067095e+03 
       6.698528006364e-02       2.952094045100e+03 
       6.948261859955e-02       2.718729924939e+03 
       7.202433360977e-02       2.501430315988e+03 
       7.461724989761e-02       2.306980274608e+03 
       7.726760547688e-02       2.140116346256e+03 
       7.998121100392e-02       2.003165176899e+03 
       8.276356502880e-02       1.895918406415e+03 
       8.561993856131e-02       1.815675290432e+03 
       8.855543781163e-02       1.757406123241e+03 
       9.157505108547e-02       1.714063807015e+03 
       9.468368398066e-02       1.677155392951e+03 
       9.788618584309e-02       1.637710348027e+03 
       1.011873696578e-01       1.587682253472e+03 
       1.045920270309e-01       1.521588918513e+03 
       1.081049395732e-01       1.437928463170e+03 
       1.117308877646e-01       1.339781304862e+03 
       1.154746582288e-01       1.234182168360e+03 
       1.193410502487e-01       1.130312090706e+03 
       1.233348822899e-01       1.037082379300e+03 
       1.274609992627e-01       9.609197781417e+02 
       1.317242812243e-01       9.043557501714e+02 
       1.361296542134e-01       8.655875906601e+02 
       1.406821038929e-01       8.389276312741e+02 
       1.453866926738e-01       8.161537663886e+02 
       1.502485809889e-01       7.888501480702e+02 
       1.552730533853e-01       7.513652837326e+02 
       1.604655501187e-01       7.031469422878e+02 
       1.658317049544e-01       6.489293089250e+02 
       1.713773899280e-01       5.963287500005e+02 
       1.771087678937e-01       5.521455553968e+02 
       1.830323538033e-01       5.194013401135e+02 
       1.891550858317e-01       4.963533218029e+02 
       1.954844076987e-01       4.776329145484e+02 
       2.020283638691e-01       4.571076540648e+02 
       2.087957097527e-01       4.313442084762e+02 
       2.157960396158e-01       4.015240352840e+02 
       2.230399356946e-01       3.721530752388e+02 
       2.305391430352e-01       3.475028030073e+02 
       2.383067759456e-01       3.286374654959e+02 
       2.463575637709e-01       3.130834765631e+02 
       2.547081461397e-01       2.971524922229e+02 
       2.633774311453e-01       2.791099193781e+02 
       2.723870344694e-01       2.603820865348e+02 
       2.817618237732e-01       2.435971251344e+02 
       2.915306015978e-01       2.296878568985e+02 
       3.017269727903e-01       2.172023731425e+02 
       3.123904610956e-01       2.043452365784e+02 
       3.235679672138e-01       1.911406141838e+02 
       3.353157025329e-01       1.789195352049e+02 
       3.477017976772e-01       1.681050390605e+02 
       3.608098880907e-01       1.577644418214e+02 
       3.747441470044e-01       1.473836064539e+02 
       3.896365187817e-01       1.375320014147e+02 
       4.056573971851e-01       1.283800566168e+02 
       4.230318812623e-01       1.194155519673e+02 
       4.420654174135e-01       1.106854510403e+02 
       4.631859580166e-01       1.023067973782e+02 
       4.870167304715e-01       9.401515288636e+01 
       5.145092579403e-01       8.583134143126e+01 
       5.472034588727e-01       7.758616829642e+01 
       5.877768066119e-01       6.914213036750e+01 
       6.412973509929e-01       6.025531116103e+01 
       7.181847466543e-01       5.062854555748e+01 
       8.397199642014e-01       4.015569407538e+01 
       1.033265625657e+00       2.994499932831e+01 
       1.298608642773e+00       2.199683530757e+01 
       1.634809437842e+00       1.628109067736e+01 
       2.058102987268e+00       1.208363633526e+01 
       2.590998150678e+00       8.928463644194e+00 
       3.261873413801e+00       6.523394878103e+00 
       4.106455330689e+00       4.685256003052e+00 
       5.169720968202e+00       3.292706640402e+00 
       6.508293098755e+00       2.257241798160e+00 
       8.193455569427e+00       1.506939749256e+00 
       1.031494942676e+01       9.794727153589e-01 
