# Matter power spectrum P(k) at redshift z=2.5
# for k=2.0417e-07 to 10.2446 h/Mpc,
# number of wavenumbers equal to 139
#    1:k (h/Mpc)              2:P (Mpc/h)^3        
       2.041702171830e-07       1.049539826634e-01 
       2.570350747432e-07       1.315251855028e-01 
       3.235879873166e-07       1.648234204855e-01 
       4.073731401842e-07       2.065517705340e-01 
       5.128523982602e-07       2.588444880094e-01 
       6.456429166694e-07       3.243761538648e-01 
       8.128162747400e-07       4.064984726122e-01 
       1.023275063390e-06       5.094116994848e-01 
       1.288226980557e-06       6.383794672652e-01 
       1.621781681982e-06       7.999980018517e-01 
       2.041702171830e-06       1.002533491645e+00 
       2.570350747432e-06       1.256344869339e+00 
       3.235879873166e-06       1.574413625872e+00 
       4.073731401842e-06       1.973007749216e+00 
       5.128523982602e-06       2.472513740574e+00 
       6.456429166694e-06       3.098479245351e+00 
       8.128162747400e-06       3.882919594611e+00 
       1.023275063390e-05       4.865955020138e+00 
       1.288226980557e-05       6.097862158616e+00 
       1.621781681982e-05       7.641644519156e+00 
       2.041702171830e-05       9.576252911931e+00 
       2.570350747432e-05       1.200061956753e+01 
       3.235879873166e-05       1.503871037240e+01 
       4.073731401842e-05       1.884584981274e+01 
       5.128523982602e-05       2.361663455672e+01 
       6.456429166694e-05       2.959482550644e+01 
       8.128162747400e-05       3.708569454486e+01 
       1.023275063390e-04       4.647139901241e+01 
       1.288226980557e-04       5.823005489147e+01 
       1.621781681982e-04       7.295925815956e+01 
       2.041702171830e-04       9.140481770077e+01 
       2.570350747432e-04       1.144953244561e+02 
       3.235879873166e-04       1.433827335884e+02 
       4.073731401842e-04       1.794881302064e+02 
       5.128523982602e-04       2.245499803824e+02 
       6.456429166694e-04       2.806692883963e+02 
       8.128162747400e-04       3.503427291009e+02 
       1.023275063390e-03       4.364725950030e+02 
       1.288226980557e-03       5.423410480663e+02 
       1.621781681982e-03       6.715228823169e+02 
       2.041702171830e-03       8.276636326117e+02 
       2.570350747432e-03       1.014025808735e+03 
       3.235879873166e-03       1.232804356969e+03 
       4.073731401842e-03       1.484164206721e+03 
       5.128523982602e-03       1.763798241010e+03 
       6.456429166694e-03       2.064940325624e+03 
       8.128162747400e-03       2.371278034981e+03 
       1.023275063390e-02       2.657933536478e+03 
       1.288226980557e-02       2.889355858959e+03 
       1.621781681953e-02       3.020689604506e+03 
       2.041702070683e-02       3.006389123131e+03 
       2.570302707647e-02       2.822165378664e+03 
       3.231352569502e-02       2.500603292559e+03 
       3.968479419532e-02       2.173977968283e+03 
       4.535971563005e-02       1.983497712655e+03 
       4.960729946002e-02       1.871941458165e+03 
       5.320019404592e-02       1.791357097159e+03 
       5.645183434186e-02       1.724225732250e+03 
       5.950876177009e-02       1.662661145004e+03 
       6.245137356484e-02       1.602586251345e+03 
       6.532913604229e-02       1.541854686786e+03 
       6.817518277206e-02       1.479506654365e+03 
       7.101323161328e-02       1.415411241720e+03 
       7.386120778415e-02       1.350047315384e+03 
       7.673329331089e-02       1.284331377019e+03 
       7.964115873352e-02       1.219456347000e+03 
       8.259474034134e-02       1.156730808381e+03 
       8.560275057488e-02       1.097420796790e+03 
       8.867302441059e-02       1.042602680830e+03 
       9.181276091355e-02       9.930364259356e+02 
       9.502869548333e-02       9.490687937147e+02 
       9.832722490097e-02       9.105744738964e+02 
       1.017144993806e-01       8.769420088731e+02 
       1.051964910191e-01       8.471127806083e+02 
       1.087790450291e-01       8.196827369245e+02 
       1.124679182139e-01       7.930715296350e+02 
       1.162688078915e-01       7.657541598835e+02 
       1.201873736439e-01       7.365278704780e+02 
       1.242292537207e-01       7.047625914732e+02 
       1.284000775581e-01       6.705639293573e+02 
       1.327054756298e-01       6.347837352014e+02 
       1.371510876906e-01       5.988463716645e+02 
       1.417425703659e-01       5.644161637835e+02 
       1.464856049793e-01       5.329856589766e+02 
       1.513859064664e-01       5.054936361175e+02 
       1.564492341986e-01       4.820741082367e+02 
       1.616814055258e-01       4.620074000363e+02 
       1.670883128337e-01       4.439072374514e+02 
       1.726759449042e-01       4.261305204081e+02 
       1.784504133686e-01       4.073211610209e+02 
       1.844179850416e-01       3.869036234777e+02 
       1.905851209474e-01       3.652973443540e+02 
       1.969585228787e-01       3.437082659905e+02 
       2.035451883945e-01       3.235624953726e+02 
       2.103524752631e-01       3.058467050681e+02 
       2.173881765050e-01       2.906732637851e+02 
       2.246606074143e-01       2.772766691392e+02 
       2.321787062381e-01       2.644533483636e+02 
       2.399521506151e-01       2.512385700251e+02 
       2.479914924344e-01       2.374383365371e+02 
       2.563083145217e-01       2.236584801171e+02 
       2.649154135491e-01       2.107963433499e+02 
       2.738270148701e-01       1.993689038021e+02 
       2.830590267130e-01       1.891765672462e+02 
       2.926293434788e-01       1.795389586000e+02 
       3.025582109973e-01       1.698944642993e+02 
       3.128686708291e-01       1.602411843880e+02 
       3.235871065199e-01       1.510175216109e+02 
       3.347439228450e-01       1.425721625428e+02 
       3.463744005882e-01       1.348024870427e+02 
       3.585197859715e-01       1.273356327304e+02 
       3.712286981109e-01       1.199915548968e+02 
       3.845589740994e-01       1.129302789263e+02 
       3.985801265007e-01       1.063252613493e+02 
       4.133766740690e-01       1.000849907589e+02 
       4.290527440035e-01       9.403336685062e+01 
       4.457385700165e-01       8.818273832435e+01 
       4.635998935924e-01       8.260854422491e+01 
       4.828519484295e-01       7.724119565566e+01 
       5.037809365185e-01       7.201139549639e+01 
       5.267782507925e-01       6.693600165301e+01 
       5.523974154870e-01       6.196503651528e+01 
       5.814537587112e-01       5.704779747653e+01 
       6.152096513037e-01       5.213791343714e+01 
       6.557437306715e-01       4.715230873931e+01 
       7.067468983599e-01       4.198250604827e+01 
       7.753692732106e-01       3.646958465876e+01 
       8.765186847178e-01       3.042732337474e+01 
       1.039178051930e+00       2.389298184054e+01 
       1.290575926919e+00       1.782901762023e+01 
       1.623671038535e+00       1.325906557248e+01 
       2.044067075690e+00       9.930956906068e+00 
       2.573327953106e+00       7.440193548313e+00 
       3.239627953036e+00       5.532999951147e+00 
       4.078449954835e+00       4.056027833669e+00 
       5.134464288873e+00       2.914031826703e+00 
       6.463907569212e+00       2.042842261354e+00 
       8.137577498370e+00       1.393255958113e+00 
       1.024460310314e+01       9.230546997451e-01 
