# Matter power spectrum P(k) at redshift z=2.5
# for k=1.89999e-07 to 12.0028 h/Mpc,
# number of wavenumbers equal to 140
#    1:k (h/Mpc)              2:P (Mpc/h)^3        
       1.899990317268e-07       2.652115658498e-01 
       2.391946092572e-07       3.306606074070e-01 
       3.011281719581e-07       4.122611957227e-01 
       3.790979078851e-07       5.139992174551e-01 
       4.772559897946e-07       6.408441979330e-01 
       6.008296934834e-07       7.989920439257e-01 
       7.563997692867e-07       9.961676905172e-01 
       9.522508910303e-07       1.242002434470e+00 
       1.198812845122e-06       1.548504385365e+00 
       1.509215954709e-06       1.930645014092e+00 
       1.899990317268e-06       2.407090445808e+00 
       2.391946092572e-06       3.001113216356e+00 
       3.011281719581e-06       3.741729021394e+00 
       3.790979078851e-06       4.665113968036e+00 
       4.772559897946e-06       5.816371529482e+00 
       6.008296934834e-06       7.251735463047e+00 
       7.563997692867e-06       9.041316171553e+00 
       9.522508910303e-06       1.127252447820e+01 
       1.198812845122e-05       1.405433957950e+01 
       1.509215954709e-05       1.752262888868e+01 
       1.899990317268e-05       2.184677790474e+01 
       2.391946092572e-05       2.723795078945e+01 
       3.011281719581e-05       3.395937867152e+01 
       3.790979078851e-05       4.233916564782e+01 
       4.772559897946e-05       5.278621298305e+01 
       6.008296934834e-05       6.580999031952e+01 
       7.563997692867e-05       8.204502267550e+01 
       9.522508910303e-05       1.022810993145e+02 
       1.198812845122e-04       1.275003080303e+02 
       1.509215954709e-04       1.589219794404e+02 
       1.899990317268e-04       1.980563397870e+02 
       2.391946092572e-04       2.467668365171e+02 
       3.011281719581e-04       3.073392448082e+02 
       3.790979078851e-04       3.825520958567e+02 
       4.772559897946e-04       4.757370012901e+02 
       6.008296934834e-04       5.908092955849e+02 
       7.563997692867e-04       7.322421278669e+02 
       9.522508910303e-04       9.049574536422e+02 
       1.198812845122e-03       1.114114258850e+03 
       1.509215954709e-03       1.364742405180e+03 
       1.899990317268e-03       1.661036929491e+03 
       2.391946092572e-03       2.005125238108e+03 
       3.011281719581e-03       2.395528726304e+03 
       3.790979078851e-03       2.825345402196e+03 
       4.772559897946e-03       3.279968417860e+03 
       6.008296934834e-03       3.734847500339e+03 
       7.563997692867e-03       4.153562174019e+03 
       9.522508910303e-03       4.486527930044e+03 
       1.198812845122e-02       4.671562890660e+03 
       1.509215954709e-02       4.639421621618e+03 
       1.899990313979e-02       4.331348380761e+03 
       2.391942406381e-02       3.738029996476e+03 
       3.010582473162e-02       2.955670019948e+03 
       3.760278121169e-02       2.221683339062e+03 
       4.448040341872e-02       1.812824138455e+03 
       4.940363817346e-02       1.640908151472e+03 
       5.337032433422e-02       1.548049589381e+03 
       5.686883108439e-02       1.483915201755e+03 
       6.010887235478e-02       1.429350714382e+03 
       6.319806576563e-02       1.375300409476e+03 
       6.619953128489e-02       1.317209458523e+03 
       6.915405158086e-02       1.253118590952e+03 
       7.208999717449e-02       1.182845837195e+03 
       7.502830914486e-02       1.107512636787e+03 
       7.798522668881e-02       1.029165467777e+03 
       8.097388425431e-02       9.504104395972e+02 
       8.400529836713e-02       8.740488286584e+02 
       8.708900456742e-02       8.027346916576e+02 
       9.023348353827e-02       7.386858558048e+02 
       9.344645478473e-02       6.834738501694e+02 
       9.673508404170e-02       6.379011566266e+02 
       1.001061326949e-01       6.019560613143e+02 
       1.035660671306e-01       5.748236810771e+02 
       1.071211397117e-01       5.549375979569e+02 
       1.107774492296e-01       5.400787285429e+02 
       1.145409862507e-01       5.275544497802e+02 
       1.184176671959e-01       5.145001145781e+02 
       1.224133599626e-01       4.983159822179e+02 
       1.265339032101e-01       4.771823320314e+02 
       1.307851209736e-01       4.505131584132e+02 
       1.351728339697e-01       4.191660160473e+02 
       1.397028687531e-01       3.852740880862e+02 
       1.443810657568e-01       3.517040222821e+02 
       1.492132871627e-01       3.213046768220e+02 
       1.542054254981e-01       2.961954624280e+02 
       1.593634138199e-01       2.772926385250e+02 
       1.646932383301e-01       2.641424704354e+02 
       1.702009542489e-01       2.550426444799e+02 
       1.758927057666e-01       2.474508768720e+02 
       1.817747508871e-01       2.387016816279e+02 
       1.878534919788e-01       2.269230318781e+02 
       1.941355128588e-01       2.117876608570e+02 
       2.006276232626e-01       1.946326140278e+02 
       2.073369116014e-01       1.777780429897e+02 
       2.142708069942e-01       1.633985566153e+02 
       2.214371516917e-01       1.525633057359e+02 
       2.288442852007e-01       1.448655161668e+02 
       2.365011416913e-01       1.387221706066e+02 
       2.444173626443e-01       1.322260152774e+02 
       2.526034272039e-01       1.242130247207e+02 
       2.610708033794e-01       1.149077169553e+02 
       2.698321241387e-01       1.056181773019e+02 
       2.789013936236e-01       9.769163329127e+01 
       2.882942302926e-01       9.156313171569e+01 
       2.980281558857e-01       8.657017974710e+01 
       3.081229419147e-01       8.159699580807e+01 
       3.186010291718e-01       7.603558631357e+01 
       3.294880409485e-01       7.022589129490e+01 
       3.408134178565e-01       6.494988850390e+01 
       3.526112122722e-01       6.055740005185e+01 
       3.649210949024e-01       5.667549401586e+01 
       3.777896469880e-01       5.275183119556e+01 
       3.912720427728e-01       4.872712595052e+01 
       4.054342737986e-01       4.497370684419e+01 
       4.203561389842e-01       4.166177006445e+01 
       4.361353387927e-01       3.854724678500e+01 
       4.528931972691e-01       3.544638221463e+01 
       4.707828456028e-01       3.249959399210e+01 
       4.900012360012e-01       2.978559058719e+01 
       5.108073139459e-01       2.716554964630e+01 
       5.335504707768e-01       2.462789035283e+01 
       5.587169181199e-01       2.222112531560e+01 
       5.870089186126e-01       1.987461770263e+01 
       6.194878804965e-01       1.759118387527e+01 
       6.578502385102e-01       1.533740926400e+01 
       7.050008647476e-01       1.308497122488e+01 
       7.663428935355e-01       1.079001680720e+01 
       8.528310433506e-01       8.409019425919e+00 
       9.872640352208e-01       5.955637129140e+00 
       1.204227162697e+00       3.705528916732e+00 
       1.511160842277e+00       2.136799057979e+00 
       1.902312825998e+00       1.212879268754e+00 
       2.394869291918e+00       6.832484216508e-01 
       3.014961808986e+00       3.823012898264e-01 
       3.795612036921e+00       2.125984818618e-01 
       4.778392446592e+00       1.175631952585e-01 
       6.015639678540e+00       6.467590706078e-02 
       7.573241659511e+00       3.541217193756e-02 
       9.534146374816e+00       1.930449751170e-02 
       1.200277915102e+01       1.048083736304e-02 
