# Matter power spectrum P(k) at redshift z=1.5
# for k=2.10329e-07 to 10.5529 h/Mpc,
# number of wavenumbers equal to 139
#    1:k (h/Mpc)              2:P (Mpc/h)^3        
       2.103286999927e-07       2.864764929063e-01 
       2.647881452505e-07       3.559417988836e-01 
       3.333485247976e-07       4.422511699320e-01 
       4.196609288519e-07       5.494889833053e-01 
       5.283218076687e-07       6.827300029510e-01 
       6.651177492792e-07       8.482795294452e-01 
       8.373336364029e-07       1.053971782814e+00 
       1.054140593018e-06       1.309540636344e+00 
       1.327084380154e-06       1.627080246096e+00 
       1.670700249771e-06       2.021617373960e+00 
       2.103286999927e-06       2.511822484136e+00 
       2.647881452505e-06       3.120893262288e+00 
       3.333485247976e-06       3.877652361748e+00 
       4.196609288519e-06       4.817911308254e+00 
       5.283218076687e-06       5.986165084022e+00 
       6.651177492792e-06       7.437697529612e+00 
       8.373336364029e-06       9.241197095631e+00 
       1.054140593018e-05       1.148200652250e+01 
       1.327084380154e-05       1.426615985754e+01 
       1.670700249771e-05       1.772539703311e+01 
       2.103286999927e-05       2.202339183548e+01 
       2.647881452505e-05       2.736348492707e+01 
       3.333485247976e-05       3.399828198399e+01 
       4.196609288519e-05       4.224155949752e+01 
       5.283218076687e-05       5.248301878014e+01 
       6.651177492792e-05       6.520654140390e+01 
       8.373336364029e-05       8.101272196008e+01 
       1.054140593018e-04       1.006465722102e+02 
       1.327084380154e-04       1.250313726775e+02 
       1.670700249771e-04       1.553096259108e+02 
       2.103286999927e-04       1.928918113370e+02 
       2.647881452505e-04       2.395129230200e+02 
       3.333485247976e-04       2.972952179557e+02 
       4.196609288519e-04       3.688127323835e+02 
       5.283218076687e-04       4.571486147013e+02 
       6.651177492792e-04       5.659307959005e+02 
       8.373336364029e-04       6.993275197383e+02 
       1.054140593018e-03       8.619839076712e+02 
       1.327084380154e-03       1.058871421016e+03 
       1.670700249771e-03       1.294964563408e+03 
       2.103286999927e-03       1.574587591030e+03 
       2.647881452505e-03       1.900398495877e+03 
       3.333485247976e-03       2.272053982452e+03 
       4.196609288519e-03       2.684492341604e+03 
       5.283218076687e-03       3.125876618890e+03 
       6.651177492792e-03       3.572986715173e+03 
       8.373336364029e-03       3.998319634660e+03 
       1.054140593018e-02       4.356698615811e+03 
       1.327084380154e-02       4.593366842572e+03 
       1.670700249769e-02       4.647004348142e+03 
       2.103286990968e-02       4.463858337484e+03 
       2.647873453543e-02       4.028011364184e+03 
       3.332224532563e-02       3.405256413667e+03 
       4.149506814857e-02       2.782535814377e+03 
       4.863193813329e-02       2.405109545700e+03 
       5.376982198067e-02       2.211670009832e+03 
       5.796678718280e-02       2.084635884714e+03 
       6.169537355839e-02       1.984488451432e+03 
       6.516286477353e-02       1.895600436688e+03 
       6.847756867440e-02       1.810632853476e+03 
       7.170383235507e-02       1.726021789235e+03 
       7.488363214938e-02       1.640316221962e+03 
       7.804639029828e-02       1.553413433006e+03 
       8.121395931654e-02       1.466113880876e+03 
       8.440337435135e-02       1.379794808814e+03 
       8.762847597557e-02       1.296131147646e+03 
       9.090091845622e-02       1.216843559501e+03 
       9.423082349921e-02       1.143475086143e+03 
       9.762721927022e-02       1.077205759828e+03 
       1.010983439001e-01       1.018714091269e+03 
       1.046518603791e-01       9.680910482514e+02 
       1.082950116869e-01       9.248089591620e+02 
       1.120347344999e-01       8.877479234767e+02 
       1.158777434888e-01       8.552865627721e+02 
       1.198305942967e-01       8.254656761888e+02 
       1.238997307953e-01       7.962301075493e+02 
       1.280915206051e-01       7.657355163353e+02 
       1.324122817998e-01       7.326767085931e+02 
       1.368683030142e-01       6.965616999014e+02 
       1.414658587048e-01       6.578407687154e+02 
       1.462112210001e-01       6.178222720010e+02 
       1.511106693716e-01       5.783664245955e+02 
       1.561704992244e-01       5.414256575299e+02 
       1.613970304207e-01       5.085554307955e+02 
       1.667966166940e-01       4.805272144052e+02 
       1.723756568827e-01       4.571393686148e+02 
       1.781406088866e-01       4.372735720990e+02 
       1.840980072378e-01       4.192037813705e+02 
       1.902544851686e-01       4.011153709898e+02 
       1.966168020527e-01       3.817064035275e+02 
       2.031918770990e-01       3.606471436073e+02 
       2.099868301905e-01       3.386635106410e+02 
       2.170090307906e-01       3.171604974349e+02 
       2.242661558988e-01       2.975490310523e+02 
       2.317662581317e-01       2.806061195139e+02 
       2.395178451529e-01       2.661692501258e+02 
       2.475299718935e-01       2.532933047110e+02 
       2.558123473068e-01       2.407918510840e+02 
       2.643754578232e-01       2.278911272055e+02 
       2.732307102362e-01       2.146144011975e+02 
       2.823905975063e-01       2.016380190340e+02 
       2.918688919707e-01       1.897276202333e+02 
       3.016808717682e-01       1.791806467842e+02 
       3.118435880433e-01       1.696764364475e+02 
       3.223761828216e-01       1.606077871065e+02 
       3.333002705816e-01       1.515960800606e+02 
       3.446404007835e-01       1.427406936646e+02 
       3.564246244257e-01       1.343985830024e+02 
       3.686851957734e-01       1.267587565637e+02 
       3.814594517673e-01       1.196681673678e+02 
       3.947909279015e-01       1.128559108795e+02 
       4.087307930433e-01       1.062432537673e+02 
       4.233397207992e-01       9.995353262033e+01 
       4.386903681661e-01       9.406199621719e+01 
       4.548707143787e-01       8.847752850196e+01 
       4.719886430419e-01       8.309995376447e+01 
       4.901783624872e-01       7.794478070607e+01 
       5.096096145157e-01       7.303484015904e+01 
       5.305012376931e-01       6.831575743642e+01 
       5.531417607597e-01       6.374918138333e+01 
       5.779217873146e-01       5.933009220817e+01 
       6.053870495522e-01       5.501914553404e+01 
       6.363295973558e-01       5.077822460001e+01 
       6.719536628019e-01       4.656497634952e+01 
       7.141981027276e-01       4.231677210002e+01 
       7.664128227841e-01       3.794933731033e+01 
       8.348934042571e-01       3.333870673871e+01 
       9.325131854451e-01       2.831747546113e+01 
       1.085810177167e+00       2.278548293348e+01 
       1.331522621235e+00       1.722573400890e+01 
       1.672579219550e+00       1.274526038428e+01 
       2.105572270816e+00       9.456816484527e+00 
       2.650758091404e+00       7.004158657193e+00 
       3.337106721570e+00       5.140591338317e+00 
       4.201168453653e+00       3.714256086234e+00 
       5.288957725532e+00       2.628074215187e+00 
       6.658403282578e+00       1.814211922934e+00 
       8.382433094411e+00       1.219210933208e+00 
       1.055285803522e+01       7.970532875435e-01 
