# Matter power spectrum P(k) at redshift z=0.5
# for k=2.09191e-07 to 10.4979 h/Mpc,
# number of wavenumbers equal to 139
#    1:k (h/Mpc)              2:P (Mpc/h)^3        
       2.091914195261e-07       4.177299914186e-01 
       2.633563939707e-07       5.245001982725e-01 
       3.315460567282e-07       6.585604660746e-01 
       4.173917559953e-07       8.268860309384e-01 
       5.254650882959e-07       1.038234972420e+00 
       6.615213526664e-07       1.303603901331e+00 
       8.328060413162e-07       1.636800118999e+00 
       1.048440688509e-06       2.055160017486e+00 
       1.319908625522e-06       2.580451098506e+00 
       1.661666509917e-06       3.240004542040e+00 
       2.091914195261e-06       4.068137248318e+00 
       2.633563939707e-06       5.107937335599e+00 
       3.315460567282e-06       6.413505979652e+00 
       4.173917559953e-06       8.052772207049e+00 
       5.254650882959e-06       1.011102703868e+01 
       6.615213526664e-06       1.269536074613e+01 
       8.328060413162e-06       1.594023385366e+01 
       1.048440688509e-05       2.001447127090e+01 
       1.319908625522e-05       2.513004251883e+01 
       1.661666509917e-05       3.155308299309e+01 
       2.091914195261e-05       3.961772595916e+01 
       2.633563939707e-05       4.974345748327e+01 
       3.315460567282e-05       6.245688244072e+01 
       4.173917559953e-05       7.841900457452e+01 
       5.254650882959e-05       9.845938143328e+01 
       6.615213526664e-05       1.236188152124e+02 
       8.328060413162e-05       1.552025712350e+02 
       1.048440688509e-04       1.948464412510e+02 
       1.319908625522e-04       2.445982045359e+02 
       1.661666509917e-04       3.070170117423e+02 
       2.091914195261e-04       3.852925932101e+02 
       2.633563939707e-04       4.833844107618e+02 
       3.315460567282e-04       6.061771136134e+02 
       4.173917559953e-04       7.596421281457e+02 
       5.254650882959e-04       9.509860693215e+02 
       6.615213526664e-04       1.188757419207e+03 
       8.328060413162e-04       1.482875975107e+03 
       1.048440688509e-03       1.844529266824e+03 
       1.319908625522e-03       2.285794293227e+03 
       1.661666509917e-03       2.818723222744e+03 
       2.091914195261e-03       3.453737397561e+03 
       2.633563939707e-03       4.197222090492e+03 
       3.315460567282e-03       5.048154351850e+03 
       4.173917559953e-03       5.994010144585e+03 
       5.254650882959e-03       7.005907184044e+03 
       6.615213526664e-03       8.020383294093e+03 
       8.328060413162e-03       8.983922670231e+03 
       1.048440688509e-02       9.785177898881e+03 
       1.319908625522e-02       1.029750473627e+04 
       1.661666509916e-02       1.038095115293e+04 
       2.091914192901e-02       9.914228499939e+03 
       2.633560994739e-02       8.863177860320e+03 
       3.314850802949e-02       7.380925246453e+03 
       4.145059701056e-02       5.885037213960e+03 
       4.924273066785e-02       4.949348909839e+03 
       5.481773692489e-02       4.503970903884e+03 
       5.927953754504e-02       4.230967567662e+03 
       6.320076484864e-02       4.023029145297e+03 
       6.682499337496e-02       3.840363398525e+03 
       7.027614371159e-02       3.665124711287e+03 
       7.362645318995e-02       3.489016080275e+03 
       7.692238316993e-02       3.308921937694e+03 
       8.019613935354e-02       3.124954938271e+03 
       8.347142426480e-02       2.939334900791e+03 
       8.676657319918e-02       2.755575373802e+03 
       9.009638451655e-02       2.577797710439e+03 
       9.347324756602e-02       2.410125810650e+03 
       9.690786913054e-02       2.256166521367e+03 
       1.004097585780e-01       2.118597120960e+03 
       1.039875617274e-01       1.998876601195e+03 
       1.076492963551e-01       1.897085604062e+03 
       1.114025216951e-01       1.811891132535e+03 
       1.152544623894e-01       1.740633992645e+03 
       1.192121002271e-01       1.679549405332e+03 
       1.232822426078e-01       1.624142985873e+03 
       1.274715738871e-01       1.569737203815e+03 
       1.317866939643e-01       1.512162974186e+03 
       1.362341472927e-01       1.448497700761e+03 
       1.408204447117e-01       1.377673937957e+03 
       1.455520799815e-01       1.300751225317e+03 
       1.504355425516e-01       1.220698475074e+03 
       1.554773278698e-01       1.141679585518e+03 
       1.606839463852e-01       1.068012301967e+03 
       1.660619323081e-01       1.003090751859e+03 
       1.716178531245e-01       9.485632176634e+02 
       1.773583208319e-01       9.039588804837e+02 
       1.832900058324e-01       8.668415606404e+02 
       1.894196544104e-01       8.334879624655e+02 
       1.957541107072e-01       7.999983481957e+02 
       2.023003441005e-01       7.635741504367e+02 
       2.090654828976e-01       7.234895289660e+02 
       2.160568552629e-01       6.812588721554e+02 
       2.232820383252e-01       6.398283310370e+02 
       2.307489164704e-01       6.021529503459e+02 
       2.384657499107e-01       5.698657606202e+02 
       2.464412547673e-01       5.426588591405e+02 
       2.546846961130e-01       5.186166326806e+02 
       2.632059957180e-01       4.953211808301e+02 
       2.720158566563e-01       4.711770147364e+02 
       2.811259074852e-01       4.461899362611e+02 
       2.905488694563e-01       4.216846196195e+02 
       3.002987512044e-01       3.991834499827e+02 
       3.103910766626e-01       3.793004298791e+02 
       3.208431536829e-01       3.614391430752e+02 
       3.316743931362e-01       3.444290246839e+02 
       3.429066913432e-01       3.275185548604e+02 
       3.545648928469e-01       3.108651991355e+02 
       3.666773562328e-01       2.951320600869e+02 
       3.792766535835e-01       2.806881348430e+02 
       3.924004452440e-01       2.672685014596e+02 
       4.060925873894e-01       2.543730447640e+02 
       4.204045528499e-01       2.418367648004e+02 
       4.353972795814e-01       2.298667610741e+02 
       4.511436123211e-01       2.186021969015e+02 
       4.677315817626e-01       2.078893302705e+02 
       4.852688898705e-01       1.975430257474e+02 
       5.038891712558e-01       1.875741634221e+02 
       5.237609362648e-01       1.780186801073e+02 
       5.451006801345e-01       1.687823705672e+02 
       5.681926777321e-01       1.597852311498e+02 
       5.934199144688e-01       1.510053009756e+02 
       6.213143822855e-01       1.423646727664e+02 
       6.526427741622e-01       1.337753847375e+02 
       6.885607508733e-01       1.251383410532e+02 
       7.309092330116e-01       1.163042684662e+02 
       7.828276087344e-01       1.070627622115e+02 
       8.501274665884e-01       9.708662855272e+01 
       9.445425724586e-01       8.586912821987e+01 
       1.090566878666e+00       7.279843334676e+01 
       1.326753817432e+00       5.818342623579e+01 
       1.663949988341e+00       4.470331494152e+01 
       2.094610955217e+00       3.378037850911e+01 
       2.636957927834e+00       2.504841981630e+01 
       3.319733344256e+00       1.813340343099e+01 
       4.179296667464e+00       1.276586759396e+01 
       5.261422778098e+00       8.719367378797e+00 
       6.623738837540e+00       5.778199500568e+00 
       8.338793143667e+00       3.724048696222e+00 
       1.049791859226e+01       2.343055505852e+00 
