# Matter power spectrum P(k) at redshift z=0.5
# for k=1.72737e-07 to 10.9103 h/Mpc,
# number of wavenumbers equal to 140
#    1:k (h/Mpc)              2:P (Mpc/h)^3        
       1.727369138677e-07       8.492589114825e-01 
       2.174628904230e-07       1.066178970174e+00 
       2.737695588757e-07       1.338505348626e+00 
       3.446554546443e-07       1.680390080872e+00 
       4.338955101652e-07       2.109599950829e+00 
       5.462420838104e-07       2.648439780405e+00 
       6.876780403003e-07       3.324911544635e+00 
       8.657353600668e-07       4.174169548114e+00 
       1.089896244677e-06       5.240347280599e+00 
       1.372098078643e-06       6.578850880504e+00 
       1.727369138677e-06       8.259238378751e+00 
       2.174628904230e-06       1.036883431598e+01 
       2.737695588757e-06       1.301726752349e+01 
       3.446554546443e-06       1.634216776456e+01 
       4.338955101652e-06       2.051631704852e+01 
       5.462420838104e-06       2.575662680473e+01 
       6.876780403003e-06       3.233540653370e+01 
       8.657353600669e-06       4.059450775092e+01 
       1.089896244677e-05       5.096307469313e+01 
       1.372098078643e-05       6.397981719021e+01 
       1.727369138677e-05       8.032094909062e+01 
       2.174628904230e-05       1.008352162373e+02 
       2.737695588757e-05       1.265877787775e+02 
       3.446554546443e-05       1.589151180751e+02 
       4.338955101652e-05       1.994936030143e+02 
       5.462420838104e-05       2.504248462063e+02 
       6.876780403003e-05       3.143414315090e+02 
       8.657353600669e-05       3.945368286323e+02 
       1.089896244677e-04       4.951229716825e+02 
       1.372098078643e-04       6.212173776506e+02 
       1.727369138677e-04       7.791575850635e+02 
       2.174628904230e-04       9.767321332955e+02 
       2.737695588757e-04       1.223401788070e+03 
       3.446554546443e-04       1.530460875692e+03 
       4.338955101652e-04       1.911060871574e+03 
       5.462420838104e-04       2.380003153346e+03 
       6.876780403003e-04       2.953220690919e+03 
       8.657353600669e-04       3.646845437919e+03 
       1.089896244677e-03       4.475499795893e+03 
       1.372098078643e-03       5.449172598310e+03 
       1.727369138677e-03       6.568751936802e+03 
       2.174628904230e-03       7.820600403880e+03 
       2.737695588757e-03       9.170754714024e+03 
       3.446554546443e-03       1.056051295041e+04 
       4.338955101652e-03       1.190328020345e+04 
       5.462420838104e-03       1.308609059671e+04 
       6.876780403003e-03       1.397288903432e+04 
       8.657353600669e-03       1.442761772572e+04 
       1.089896244677e-02       1.430884940464e+04 
       1.372098078643e-02       1.350129610172e+04 
       1.727369138668e-02       1.194933492544e+04 
       2.174628859986e-02       9.728998480615e+03 
       2.737669113704e-02       7.150508927263e+03 
       3.443542322218e-02       4.791419051724e+03 
       4.255191214308e-02       3.302972799795e+03 
       4.906922791091e-02       2.760156552188e+03 
       5.386485492258e-02       2.562368603098e+03 
       5.787214515420e-02       2.454627752657e+03 
       6.147524179424e-02       2.365964573310e+03 
       6.484952375022e-02       2.270192703490e+03 
       6.808952783720e-02       2.157123412710e+03 
       7.125268591146e-02       2.024602950932e+03 
       7.437709739610e-02       1.875385122353e+03 
       7.748982510103e-02       1.715311231717e+03 
       8.061119149099e-02       1.551861209123e+03 
       8.375718762608e-02       1.392868334439e+03 
       8.694091080138e-02       1.245433160522e+03 
       9.017346658348e-02       1.115132689913e+03 
       9.346455840335e-02       1.005588407241e+03 
       9.682288613930e-02       9.183760133787e+02 
       1.002564231849e-01       8.531780922153e+02 
       1.037726135070e-01       8.080378182347e+02 
       1.073785144110e-01       7.795951605431e+02 
       1.110809014714e-01       7.632751014730e+02 
       1.148863464743e-01       7.535142911630e+02 
       1.188012757167e-01       7.441931457917e+02 
       1.228320137772e-01       7.294128168538e+02 
       1.269848164187e-01       7.045895884985e+02 
       1.312658953281e-01       6.675831927371e+02 
       1.356814367617e-01       6.193826350034e+02 
       1.402376157416e-01       5.639238843644e+02 
       1.449406071675e-01       5.069675758316e+02 
       1.497965950233e-01       4.544384464881e+02 
       1.548117807374e-01       4.108866218107e+02 
       1.599923916823e-01       3.785728861860e+02 
       1.653446907475e-01       3.572585678070e+02 
       1.708749878942e-01       3.444794157870e+02 
       1.765896545785e-01       3.361399617268e+02 
       1.824951419182e-01       3.275037514278e+02 
       1.885980034702e-01       3.146339642641e+02 
       1.949049234810e-01       2.958713872498e+02 
       2.014227514778e-01       2.724799983545e+02 
       2.081585440831e-01       2.478678575851e+02 
       2.151196149713e-01       2.257818945822e+02 
       2.223135939477e-01       2.085888915467e+02 
       2.297484962392e-01       1.964821301196e+02 
       2.374328032369e-01       1.877217892184e+02 
       2.453755561666e-01       1.796520578574e+02 
       2.535864644821e-01       1.701283659682e+02 
       2.620760312176e-01       1.586616903574e+02 
       2.708556981290e-01       1.464610579557e+02 
       2.799380142441e-01       1.353154182281e+02 
       2.893368324870e-01       1.262598826155e+02 
       2.990675404231e-01       1.190193560679e+02 
       3.091473330046e-01       1.124664448651e+02 
       3.195955376381e-01       1.056313812912e+02 
       3.304340051765e-01       9.843256019190e+01 
       3.416875848989e-01       9.150631723506e+01 
       3.533847076653e-01       8.540773436546e+01 
       3.655581099699e-01       8.007629347314e+01 
       3.782457436809e-01       7.505033321386e+01 
       3.914919335825e-01       7.005693212777e+01 
       4.053488701558e-01       6.523883692161e+01 
       4.198785627333e-01       6.081519007346e+01 
       4.351554354507e-01       5.674413251892e+01 
       4.512698374459e-01       5.284908454436e+01 
       4.683328805723e-01       4.910207723993e+01 
       4.864832500925e-01       4.557781466125e+01 
       5.058970258423e-01       4.225491117692e+01 
       5.268022363946e-01       3.906565632530e+01 
       5.495011132741e-01       3.601484649499e+01 
       5.744053750645e-01       3.309215147324e+01 
       6.020945876492e-01       3.026132625513e+01 
       6.334176126281e-01       2.750601718784e+01 
       6.696796044577e-01       2.479372239312e+01 
       7.130112101376e-01       2.208731151587e+01 
       7.671563911723e-01       1.933560605185e+01 
       8.392860658513e-01       1.647159923461e+01 
       9.442602492991e-01       1.342032280234e+01 
       1.111797645694e+00       1.020713154291e+01 
       1.374996425657e+00       7.280054566905e+00 
       1.729186042953e+00       5.163446908594e+00 
       2.176887677584e+00       3.721563372640e+00 
       2.740539131456e+00       2.713304651983e+00 
       3.450134354573e+00       1.986823291508e+00 
       4.343461813076e+00       1.450491857543e+00 
       5.468094451639e+00       1.048453455312e+00 
       6.883923059260e+00       7.458223012315e-01 
       8.666345672138e+00       5.196868196167e-01 
       1.091028279405e+01       3.536694833291e-01 
