# Matter power spectrum P(k) at redshift z=2.5
# for k=2.38726e-07 to 11.9777 h/Mpc,
# number of wavenumbers equal to 139
#    1:k (h/Mpc)              2:P (Mpc/h)^3        
       2.387256235384e-07       8.365310104460e-02 
       3.005377539189e-07       1.044845423224e-01 
       3.783546156120e-07       1.305034654437e-01 
       4.763202402635e-07       1.630016662259e-01 
       5.996516546197e-07       2.035926255876e-01 
       7.549167062251e-07       2.542916162832e-01 
       9.503838252548e-07       3.176157576020e-01 
       1.196462348571e-06       3.967089861157e-01 
       1.506256854871e-06       4.954981463140e-01 
       1.896265031287e-06       6.188879512734e-01 
       2.387256235384e-06       7.730044923084e-01 
       3.005377539189e-06       9.654993863800e-01 
       3.783546156120e-06       1.205929660941e+00 
       4.763202402635e-06       1.506232234849e+00 
       5.996516546197e-06       1.881316546385e+00 
       7.549167062251e-06       2.349804742792e+00 
       9.503838252548e-06       2.934956162830e+00 
       1.196462348571e-05       3.665821972167e+00 
       1.506256854871e-05       4.578687203280e+00 
       1.896265031287e-05       5.718871654629e+00 
       2.387256235384e-05       7.142978764123e+00 
       3.005377539189e-05       8.921703548627e+00 
       3.783546156120e-05       1.114333788449e+01 
       4.763202402635e-05       1.391814493899e+01 
       5.996516546197e-05       1.738381550787e+01 
       7.549167062251e-05       2.171226849207e+01 
       9.503838252548e-05       2.711811587149e+01 
       1.196462348571e-04       3.386917867817e+01 
       1.506256854871e-04       4.229950944550e+01 
       1.896265031287e-04       5.282543760319e+01 
       2.387256235384e-04       6.596518167094e+01 
       3.005377539189e-04       8.236251674670e+01 
       3.783546156120e-04       1.028147571451e+02 
       4.763202402635e-04       1.283047666071e+02 
       5.996516546197e-04       1.600356516663e+02 
       7.549167062251e-04       1.994650968294e+02 
       9.503838252548e-04       2.483341792532e+02 
       1.196462348571e-03       3.086837866261e+02 
       1.506256854871e-03       3.828505945061e+02 
       1.896265031287e-03       4.734274636044e+02 
       2.387256235384e-03       5.831454857312e+02 
       3.005377539189e-03       7.146084457444e+02 
       3.783546156120e-03       8.698688899346e+02 
       4.763202402635e-03       1.049802637326e+03 
       5.996516546197e-03       1.252049508798e+03 
       7.549167062251e-03       1.473724155929e+03 
       9.503838252548e-03       1.704491318875e+03 
       1.196462348571e-02       1.928021291317e+03 
       1.506256854871e-02       2.119682033518e+03 
       1.896265031266e-02       2.246604287697e+03 
       2.387256154643e-02       2.272601458717e+03 
       3.005335184148e-02       2.172927330125e+03 
       3.779217380862e-02       1.960927554561e+03 
       4.654409121297e-02       1.724499900325e+03 
       5.339937896784e-02       1.579083117374e+03 
       5.849162069914e-02       1.493919583418e+03 
       6.277679351032e-02       1.432913521574e+03 
       6.664423025507e-02       1.382599078486e+03 
       7.027409895927e-02       1.336852513024e+03 
       7.376450184889e-02       1.292434461318e+03 
       7.717547063995e-02       1.247557933821e+03 
       8.054704928783e-02       1.201330152677e+03 
       8.390780716157e-02       1.153492668243e+03 
       8.727927648640e-02       1.104269390343e+03 
       9.067845296663e-02       1.054250416645e+03 
       9.411929411518e-02       1.004282474287e+03 
       9.761366242097e-02       9.553549378749e+02 
       1.011719434699e-01       9.084823695733e+02 
       1.048034647346e-01       8.645887760357e+02 
       1.085167872183e-01       8.244013629756e+02 
       1.123199131870e-01       7.883621323840e+02 
       1.162204368449e-01       7.565644893314e+02 
       1.202256551779e-01       7.287218807236e+02 
       1.243426503393e-01       7.041750874199e+02 
       1.285783512956e-01       6.819460611492e+02 
       1.329395801171e-01       6.608454231590e+02 
       1.374330867755e-01       6.396338806142e+02 
       1.420655753105e-01       6.172254387291e+02 
       1.468437235570e-01       5.928998513299e+02 
       1.517741981851e-01       5.664734264002e+02 
       1.568636665076e-01       5.383711344001e+02 
       1.621188063166e-01       5.095580987168e+02 
       1.675463148861e-01       4.813278068744e+02 
       1.731529181990e-01       4.549904258662e+02 
       1.789453814053e-01       4.315411591156e+02 
       1.849305214902e-01       4.113965098425e+02 
       1.911152231070e-01       3.942707012504e+02 
       1.975064585213e-01       3.792368381031e+02 
       2.041113125994e-01       3.649847862261e+02 
       2.109370137746e-01       3.502361228841e+02 
       2.179909719270e-01       3.341984902285e+02 
       2.252808241326e-01       3.168730461996e+02 
       2.328144892768e-01       2.990437777045e+02 
       2.406002325993e-01       2.819141592354e+02 
       2.486467413529e-01       2.665475738275e+02 
       2.569632129343e-01       2.533805077143e+02 
       2.655594570995e-01       2.420425728515e+02 
       2.744460142323e-01       2.315779944225e+02 
       2.836342921208e-01       2.209805125556e+02 
       2.931367243516e-01       2.097663117810e+02 
       3.029669543004e-01       1.982218793921e+02 
       3.131400498520e-01       1.871334087160e+02 
       3.236727555027e-01       1.771826166331e+02 
       3.345837905189e-01       1.684596839380e+02 
       3.458942045187e-01       1.604543045592e+02 
       3.576278054641e-01       1.525215807426e+02 
       3.698116799762e-01       1.444303290019e+02 
       3.824768326566e-01       1.364933706515e+02 
       3.956589805441e-01       1.291606028664e+02 
       4.093995521994e-01       1.225195930452e+02 
       4.237469601281e-01       1.162475147399e+02 
       4.387582433741e-01       1.100381454902e+02 
       4.545012190380e-01       1.039506270196e+02 
       4.710573452883e-01       9.822677990306e+01 
       4.885255977620e-01       9.288280100720e+01 
       5.070278197842e-01       8.771384420529e+01 
       5.267162669537e-01       8.265356322268e+01 
       5.477845068260e-01       7.781351414632e+01 
       5.704836056901e-01       7.317826545663e+01 
       5.951469398027e-01       6.863765224474e+01 
       6.222296457516e-01       6.420783675435e+01 
       6.523740896416e-01       5.987137482773e+01 
       6.865241211120e-01       5.555754797309e+01 
       7.261366520269e-01       5.123839589662e+01 
       7.736016373185e-01       4.682914619107e+01 
       8.331434790797e-01       4.223116618931e+01 
       9.129056266177e-01       3.728823247516e+01 
       1.029825506130e+00       3.179918420078e+01 
       1.217273657641e+00       2.570504442683e+01 
       1.509145603464e+00       1.976585026218e+01 
       1.898361833280e+00       1.503228017737e+01 
       2.389874481796e+00       1.140503371868e+01 
       3.008673660548e+00       8.568383584543e+00 
       3.787695727040e+00       6.327920248373e+00 
       4.768426402915e+00       4.567179656507e+00 
       6.003093172900e+00       3.207636575154e+00 
       7.557446544732e+00       2.186074580840e+00 
       9.514261503439e+00       1.444562285473e+00 
       1.197774558113e+01       9.271021485212e-01 
