# Matter power spectrum P(k) at redshift z=2.5
# for k=1.6869e-07 to 10.6566 h/Mpc,
# number of wavenumbers equal to 140
#    1:k (h/Mpc)              2:P (Mpc/h)^3        
       1.686904726574e-07       4.030904849391e-01 
       2.123687227560e-07       5.031906306263e-01 
       2.673563817478e-07       6.281488154448e-01 
       3.365817429876e-07       7.841380784835e-01 
       4.237313093931e-07       9.788644192120e-01 
       5.334461131677e-07       1.221947480371e+00 
       6.715688676897e-07       1.525395765471e+00 
       8.454551133044e-07       1.904199866562e+00 
       1.064364926670e-06       2.377073009197e+00 
       1.339956053608e-06       2.967375493911e+00 
       1.686904726574e-06       3.704268700009e+00 
       2.123687227560e-06       4.624155651858e+00 
       2.673563817478e-06       5.772479304052e+00 
       3.365817429876e-06       7.205967348641e+00 
       4.237313093931e-06       8.995434383107e+00 
       5.334461131677e-06       1.122927977594e+01 
       6.715688676897e-06       1.401785378555e+01 
       8.454551133044e-06       1.749890723649e+01 
       1.064364926670e-05       2.184439308770e+01 
       1.339956053608e-05       2.726895429198e+01 
       1.686904726574e-05       3.404051392288e+01 
       2.123687227560e-05       4.249348430031e+01 
       2.673563817478e-05       5.304523480781e+01 
       3.365817429876e-05       6.621660661340e+01 
       4.237313093931e-05       8.265743775349e+01 
       5.334461131677e-05       1.031782606883e+02 
       6.715688676897e-05       1.287895440529e+02 
       8.454551133044e-05       1.607500345254e+02 
       1.064364926670e-04       2.006258389155e+02 
       1.339956053608e-04       2.503617085974e+02 
       1.686904726574e-04       3.123652418056e+02 
       2.123687227560e-04       3.896028409269e+02 
       2.673563817478e-04       4.857023235611e+02 
       3.365817429876e-04       6.050498013018e+02 
       4.237313093931e-04       7.528567340192e+02 
       5.334461131677e-04       9.351581200952e+02 
       6.715688676897e-04       1.158692113604e+03 
       8.454551133044e-04       1.430619435643e+03 
       1.064364926670e-03       1.758061822395e+03 
       1.339956053608e-03       2.147373347932e+03 
       1.686904726574e-03       2.602814249271e+03 
       2.123687227560e-03       3.124419498868e+03 
       2.673563817478e-03       3.705632723207e+03 
       3.365817429876e-03       4.330731074687e+03 
       4.237313093931e-03       4.972178957901e+03 
       5.334461131677e-03       5.588901839440e+03 
       6.715688676897e-03       6.125891078401e+03 
       8.454551133044e-03       6.515755262794e+03 
       1.064364926670e-02       6.683204057233e+03 
       1.339956053607e-02       6.555220955920e+03 
       1.686904723539e-02       6.082931206254e+03 
       2.123683858996e-02       5.281828592809e+03 
       2.672929849698e-02       4.281326980018e+03 
       3.338171286133e-02       3.349172563462e+03 
       3.947187262084e-02       2.796890030435e+03 
       4.383193100042e-02       2.529265983593e+03 
       4.734696502521e-02       2.358803311519e+03 
       5.044810854313e-02       2.225298065170e+03 
       5.332066003509e-02       2.106720838376e+03 
       5.605978168339e-02       1.993525006377e+03 
       5.872131887362e-02       1.881579890712e+03 
       6.134136886892e-02       1.769623294554e+03 
       6.394505086661e-02       1.658087010902e+03 
       6.655091094608e-02       1.548409684856e+03 
       6.917333425868e-02       1.442545900226e+03 
       7.182395791010e-02       1.342575523347e+03 
       7.451254414986e-02       1.250385030300e+03 
       7.724754407122e-02       1.167420106003e+03 
       8.003647480279e-02       1.094512666028e+03 
       8.288617949547e-02       1.031782400422e+03 
       8.580301095564e-02       9.786084273841e+02 
       8.879296394977e-02       9.336684500262e+02 
       9.186177203483e-02       8.950456242483e+02 
       9.501497926628e-02       8.604121425081e+02 
       9.825799373369e-02       8.272959988633e+02 
       1.015961277187e-01       7.934216861793e+02 
       1.050346278763e-01       7.570831189427e+02 
       1.085786979251e-01       7.174679531766e+02 
       1.122335157269e-01       6.748327850691e+02 
       1.160042462301e-01       6.304458333184e+02 
       1.198960514836e-01       5.862774071954e+02 
       1.239140987503e-01       5.445049471914e+02 
       1.280635676353e-01       5.069670470402e+02 
       1.323496570666e-01       4.747153361678e+02 
       1.367775929238e-01       4.477744791633e+02 
       1.413526370792e-01       4.251616266727e+02 
       1.460800985974e-01       4.051689629427e+02 
       1.509653478291e-01       3.858672099499e+02 
       1.560138341237e-01       3.657158605048e+02 
       1.612311078855e-01       3.440735818978e+02 
       1.666228476936e-01       3.213736365849e+02 
       1.721948932204e-01       2.988464552545e+02 
       1.779532847024e-01       2.779043427003e+02 
       1.839043097668e-01       2.594895789439e+02 
       1.900545584857e-01       2.436953584096e+02 
       1.964109876532e-01       2.298156774154e+02 
       2.029809954438e-01       2.167787714249e+02 
       2.097725078595e-01       2.037380410275e+02 
       2.167940787010e-01       1.904897799070e+02 
       2.240550052530e-01       1.774616603359e+02 
       2.315654624753e-01       1.653000049830e+02 
       2.393366592874e-01       1.543744425967e+02 
       2.473810215947e-01       1.445578954489e+02 
       2.557124080944e-01       1.354042345241e+02 
       2.643463667649e-01       1.265375893256e+02 
       2.733004424277e-01       1.179122992543e+02 
       2.825945491439e-01       1.097372014730e+02 
       2.922514258201e-01       1.021869110825e+02 
       3.022971997970e-01       9.521634953369e+01 
       3.127620921926e-01       8.864489912172e+01 
       3.236813116308e-01       8.236415923883e+01 
       3.350962016660e-01       7.640721256431e+01 
       3.470557348532e-01       7.082846652528e+01 
       3.596184881276e-01       6.559524945194e+01 
       3.728552984992e-01       6.063496041229e+01 
       3.868528997102e-01       5.592486245733e+01 
       4.017190053955e-01       5.147295888232e+01 
       4.175895798084e-01       4.725668775693e+01 
       4.346395130680e-01       4.324116887943e+01 
       4.530987711464e-01       3.941168512093e+01 
       4.732776867689e-01       3.574950261609e+01 
       4.956081894595e-01       3.222670551648e+01 
       5.207142647667e-01       2.881908384426e+01 
       5.495392447776e-01       2.549581446830e+01 
       5.835913043760e-01       2.221971336542e+01 
       6.254539168556e-01       1.894413048794e+01 
       6.799344892978e-01       1.561026455068e+01 
       7.567835492124e-01       1.215447940851e+01 
       8.762872827653e-01       8.596196382391e+00 
       1.069111556900e+00       5.340359527017e+00 
       1.341672492056e+00       3.076209160320e+00 
       1.688956288667e+00       1.744708474199e+00 
       2.126269418174e+00       9.821963950487e-01 
       2.676814602404e+00       5.492913884509e-01 
       3.369909925628e+00       3.053461784807e-01 
       4.242465240830e+00       1.688077668994e-01 
       5.340947300334e+00       9.285438945254e-02 
       6.723854279444e+00       5.083917683268e-02 
       8.464831017594e+00       2.771633730508e-02 
       1.065659087459e+01       1.505046747414e-02 
