# Matter power spectrum P(k) at redshift z=0
# for k=2.38942e-07 to 11.9879 h/Mpc,
# number of wavenumbers equal to 139
#    1:k (h/Mpc)              2:P (Mpc/h)^3        
       2.389423681479e-07       1.289620617112e+00 
       3.008106192157e-07       1.598350301606e+00 
       3.786981326682e-07       1.980988557324e+00 
       4.767527026150e-07       2.455228780903e+00 
       6.001960924635e-07       3.043000091880e+00 
       7.556021128619e-07       3.771481346208e+00 
       9.512467010872e-07       4.674357899374e+00 
       1.197548644884e-06       5.793379231839e+00 
       1.507624420904e-06       7.180289460646e+00 
       1.897986694918e-06       8.899220002377e+00 
       2.389423681479e-06       1.102965501846e+01 
       3.008106192157e-06       1.367010675506e+01 
       3.786981326682e-06       1.694267070424e+01 
       4.767527026150e-06       2.099867117150e+01 
       6.001960924635e-06       2.602565821362e+01 
       7.556021128619e-06       3.225607930842e+01 
       9.512467010872e-06       3.997802638880e+01 
       1.197548644884e-05       4.954855449531e+01 
       1.507624420904e-05       6.141018654840e+01 
       1.897986694918e-05       7.611136476676e+01 
       2.389423681479e-05       9.433178916472e+01 
       3.008106192157e-05       1.169138045220e+02 
       3.786981326682e-05       1.449012669797e+02 
       4.767527026150e-05       1.795876479238e+02 
       6.001960924635e-05       2.225755220402e+02 
       7.556021128619e-05       2.758500388373e+02 
       9.512467010872e-05       3.418694799898e+02 
       1.197548644884e-04       4.236765173061e+02 
       1.507624420904e-04       5.250342135443e+02 
       1.897986694918e-04       6.505909557603e+02 
       2.389423681479e-04       8.060780240227e+02 
       3.008106192157e-04       9.985418032580e+02 
       3.786981326682e-04       1.236608993625e+03 
       4.767527026150e-04       1.530776985371e+03 
       6.001960924635e-04       1.893713162775e+03 
       7.556021128619e-04       2.340537161731e+03 
       9.512467010872e-04       2.889042972704e+03 
       1.197548644884e-03       3.559763374336e+03 
       1.507624420904e-03       4.375664593018e+03 
       1.897986694918e-03       5.361207859372e+03 
       2.389423681479e-03       6.540535675933e+03 
       3.008106192157e-03       7.934302843188e+03 
       3.786981326682e-03       9.554781500096e+03 
       4.767527026150e-03       1.139903763569e+04 
       6.001960924635e-03       1.343956277261e+04 
       7.556021128619e-03       1.561255328850e+04 
       9.512467010872e-03       1.780481757606e+04 
       1.197548644884e-02       1.984029520285e+04 
       1.507624420904e-02       2.147154460462e+04 
       1.897986694908e-02       2.238877124358e+04 
       2.389423635169e-02       2.227457017637e+04 
       3.008078131220e-02       2.094482261515e+04 
       3.783755904395e-02       1.858325029666e+04 
       4.676976899513e-02       1.604172904984e+04 
       5.395976253085e-02       1.447118646968e+04 
       5.924583758727e-02       1.356953621129e+04 
       6.365994655941e-02       1.292957238950e+04 
       6.762739065941e-02       1.240448828168e+04 
       7.134209065855e-02       1.193030316961e+04 
       7.490847749840e-02       1.147447882037e+04 
       7.838994986483e-02       1.101979817953e+04 
       8.182854342987e-02       1.055813218339e+04 
       8.525410451970e-02       1.008751916046e+04 
       8.868903807623e-02       9.610456772781e+03 
       9.215096859145e-02       9.132627424101e+03 
       9.565432753165e-02       8.661752008668e+03 
       9.921134904816e-02       8.206471958516e+03 
       1.028327206332e-01       7.775258822016e+03 
       1.065280228914e-01       7.375397657217e+03 
       1.103060351862e-01       7.012109228988e+03 
       1.141749529930e-01       6.687872151290e+03 
       1.181425453505e-01       6.401999700759e+03 
       1.222162705753e-01       6.150521849657e+03 
       1.264033622096e-01       5.926426108660e+03 
       1.307108933061e-01       5.720316595952e+03 
       1.351458246917e-01       5.521527608252e+03 
       1.397150412476e-01       5.319656577997e+03 
       1.444253791885e-01       5.106347185898e+03 
       1.492836466207e-01       4.876985376945e+03 
       1.542966391938e-01       4.631847712789e+03 
       1.594711523476e-01       4.376257418601e+03 
       1.648139914540e-01       4.119515841285e+03 
       1.703319810210e-01       3.872743280325e+03 
       1.760319740404e-01       3.646135961343e+03 
       1.819208625130e-01       3.446357556783e+03 
       1.880055901450e-01       3.274759350872e+03 
       1.942931681964e-01       3.126931106021e+03 
       2.007906954424e-01       2.993833903339e+03 
       2.075053832013e-01       2.864449411910e+03 
       2.144445863804e-01       2.729386425951e+03 
       2.216158414924e-01       2.584258172586e+03 
       2.290269126147e-01       2.431305872200e+03 
       2.366858463011e-01       2.278240142262e+03 
       2.446010365273e-01       2.134607121070e+03 
       2.527813008623e-01       2.007358052862e+03 
       2.612359692354e-01       1.897755431065e+03 
       2.699749869169e-01       1.801090943881e+03 
       2.790090336862e-01       1.709411012609e+03 
       2.883496616451e-01       1.615980664406e+03 
       2.980094547841e-01       1.518997574484e+03 
       3.080022142806e-01       1.422102055258e+03 
       3.183431746513e-01       1.331236641417e+03 
       3.290492574045e-01       1.250152233201e+03 
       3.401393708447e-01       1.177901896302e+03 
       3.516347673702e-01       1.110101069976e+03 
       3.635594732030e-01       1.042808539316e+03 
       3.759408103905e-01       9.756545048919e+02 
       3.888100376440e-01       9.113786225814e+02 
       4.022031459501e-01       8.524399458433e+02 
       4.161618581361e-01       7.984084534577e+02 
       4.307349005929e-01       7.468610579149e+02 
       4.459796431478e-01       6.964098617498e+02 
       4.619642444546e-01       6.479480218899e+02 
       4.787705031274e-01       6.026930239764e+02 
       4.964977125155e-01       5.601862961119e+02 
       5.152679725780e-01       5.192320068661e+02 
       5.352336669667e-01       4.797862720484e+02 
       5.565882432546e-01       4.423744753722e+02 
       5.795821851748e-01       4.066242110854e+02 
       6.045474295504e-01       3.720335719011e+02 
       6.319360690636e-01       3.387072830446e+02 
       6.623843469886e-01       3.063942555505e+02 
       6.968238591611e-01       2.747681400933e+02 
       7.366864406238e-01       2.436138922353e+02 
       7.843084818560e-01       2.124972993265e+02 
       8.437932119148e-01       1.809205414893e+02 
       9.229948798785e-01       1.482041998187e+02 
       1.038183485451e+00       1.137361066391e+02 
       1.221939153895e+00       7.836744846923e+01 
       1.510844199374e+00       4.780735784395e+01 
       1.899976822870e+00       2.774166286200e+01 
       2.391896579397e+00       1.589789378898e+01 
       3.011219288827e+00       9.028830311972e+00 
       3.790900483150e+00       5.086292816251e+00 
       4.772460951820e+00       2.844343387447e+00 
       6.008172369042e+00       1.580032786668e+00 
       7.563840873826e+00       8.723910344016e-01 
       9.522311486827e+00       4.790093599768e-01 
       1.198787990979e+01       2.616757530831e-01 
