# Matter power spectrum P(k) at redshift z=1.5
# for k=2.24252e-07 to 11.2533 h/Mpc,
# number of wavenumbers equal to 139
#    1:k (h/Mpc)              2:P (Mpc/h)^3        
       2.242517329970e-07       2.685943583691e-01 
       2.823162053088e-07       3.342773004147e-01 
       3.554150450246e-07       4.160225636607e-01 
       4.474410319154e-07       5.177580805739e-01 
       5.632948853578e-07       6.443723329254e-01 
       7.091462455106e-07       8.019492475642e-01 
       8.927622291517e-07       9.980605343996e-01 
       1.123921056969e-06       1.242129513291e+00 
       1.414932779469e-06       1.545883912094e+00 
       1.781294832054e-06       1.923919392846e+00 
       2.242517329970e-06       2.394400883266e+00 
       2.823162053088e-06       2.979935410519e+00 
       3.554150450246e-06       3.708658377263e+00 
       4.474410319154e-06       4.615585467677e+00 
       5.632948853578e-06       5.744295132718e+00 
       7.091462455106e-06       7.149022478175e+00 
       8.927622291517e-06       8.897265117384e+00 
       1.123921056969e-05       1.107302611754e+01 
       1.414932779469e-05       1.378084967976e+01 
       1.781294832054e-05       1.715084312165e+01 
       2.242517329970e-05       2.134492576496e+01 
       2.823162053088e-05       2.656460362376e+01 
       3.554150450246e-05       3.306064073775e+01 
       4.474410319154e-05       4.114508652091e+01 
       5.632948853578e-05       5.120622647390e+01 
       7.091462455106e-05       6.372715387575e+01 
       8.927622291517e-05       7.930881403174e+01 
       1.123921056969e-04       9.869854829412e+01 
       1.414932779469e-04       1.228253531253e+02 
       1.781294832054e-04       1.528432447827e+02 
       2.242517329970e-04       1.901842290859e+02 
       2.823162053088e-04       2.366223131313e+02 
       3.554150450246e-04       2.943495800600e+02 
       4.474410319154e-04       3.660643081218e+02 
       5.632948853578e-04       4.550691616196e+02 
       7.091462455106e-04       5.653745578777e+02 
       8.927622291517e-04       7.017989512715e+02 
       1.123921056969e-03       8.700541935547e+02 
       1.414932779469e-03       1.076794405431e+03 
       1.781294832054e-03       1.329561239834e+03 
       2.242517329970e-03       1.636554391522e+03 
       2.823162053088e-03       2.006071912049e+03 
       3.554150450246e-03       2.445540391714e+03 
       4.474410319154e-03       2.959938042670e+03 
       5.632948853578e-03       3.549283602778e+03 
       7.091462455106e-03       4.204937528783e+03 
       8.927622291517e-03       4.904518064807e+03 
       1.123921056969e-02       5.605300690551e+03 
       1.414932779469e-02       6.237303675409e+03 
       1.781294831988e-02       6.700259442773e+03 
       2.242517138587e-02       6.875290318280e+03 
       2.823083221098e-02       6.669351689264e+03 
       3.547538046896e-02       6.104902978356e+03 
       4.337273091147e-02       5.457581559962e+03 
       4.931958638819e-02       5.061199065390e+03 
       5.382148242865e-02       4.820521374441e+03 
       5.765694216322e-02       4.646243507058e+03 
       6.114158719585e-02       4.502956499392e+03 
       6.442517045369e-02       4.373394513327e+03 
       6.759073703294e-02       4.247756088668e+03 
       7.068978066864e-02       4.120141150790e+03 
       7.375699827245e-02       3.987156153851e+03 
       7.681734548916e-02       3.847287845773e+03 
       7.988975811952e-02       3.700562024703e+03 
       8.298926864322e-02       3.548288179463e+03 
       8.612828374812e-02       3.392801857476e+03 
       8.931739331990e-02       3.237168085382e+03 
       9.256590323513e-02       3.084838691272e+03 
       9.588219780737e-02       2.939278623855e+03 
       9.927399303922e-02       2.803585532132e+03 
       1.027485175005e-01       2.680134175168e+03 
       1.063126438082e-01       2.570275715358e+03 
       1.099729855068e-01       2.474120209392e+03 
       1.137359691544e-01       2.390429568187e+03 
       1.176078882990e-01       2.316652165419e+03 
       1.215949440202e-01       2.249134400764e+03 
       1.257032754058e-01       2.183539808914e+03 
       1.299389824725e-01       2.115477799857e+03 
       1.343081434606e-01       2.041285326547e+03 
       1.388168280543e-01       1.958821985115e+03 
       1.434711078238e-01       1.868067711750e+03 
       1.482770650196e-01       1.771298040445e+03 
       1.532408007419e-01       1.672694779211e+03 
       1.583684434419e-01       1.577414603794e+03 
       1.636661586660e-01       1.490325986360e+03 
       1.691401609317e-01       1.414742883096e+03 
       1.747967286037e-01       1.351491901022e+03 
       1.806422226286e-01       1.298576474993e+03 
       1.866831099790e-01       1.251608459031e+03 
       1.929259926554e-01       1.205051636606e+03 
       1.993776431011e-01       1.154072888177e+03 
       2.060450469021e-01       1.096411369108e+03 
       2.129354536865e-01       1.033392332551e+03 
       2.200564372059e-01       9.694040264931e+02 
       2.274159656937e-01       9.099062437671e+02 
       2.350224837645e-01       8.588826128366e+02 
       2.428850073597e-01       8.169735520741e+02 
       2.510132335858e-01       7.812066296842e+02 
       2.594176677513e-01       7.465805588868e+02 
       2.681097705279e-01       7.089021718303e+02 
       2.771021289876e-01       6.673184930623e+02 
       2.864086563526e-01       6.247221675411e+02 
       2.960448267394e-01       5.855122058888e+02 
       3.060279530865e-01       5.522972070015e+02 
       3.163775190096e-01       5.240386396417e+02 
       3.271155787617e-01       4.970906120964e+02 
       3.382672441558e-01       4.684266809868e+02 
       3.498612837541e-01       4.382927484402e+02 
       3.619308686345e-01       4.095975501798e+02 
       3.745145118193e-01       3.845692014768e+02 
       3.876572668600e-01       3.623497030243e+02 
       4.014122780781e-01       3.402951521114e+02 
       4.158428153279e-01       3.174246788816e+02 
       4.310249877771e-01       2.954207859313e+02 
       4.470514274370e-01       2.757034820685e+02 
       4.640363873301e-01       2.571840855200e+02 
       4.821229531297e-01       2.384350854679e+02 
       5.014934987854e-01       2.202160896864e+02 
       5.223852768457e-01       2.033543313210e+02 
       5.451144273467e-01       1.868316535710e+02 
       5.701143605158e-01       1.704780697861e+02 
       5.979998614502e-01       1.548369755949e+02 
       6.296798066538e-01       1.392226346997e+02 
       6.665677508207e-01       1.237880207713e+02 
       7.110042335270e-01       1.081495688095e+02 
       7.671731144099e-01       9.211368089872e+01 
       8.432373712439e-01       7.525707209152e+01 
       9.562662188401e-01       5.727747089674e+01 
       1.138703891415e+00       3.892648055143e+01 
       1.417399687255e+00       2.372319579928e+01 
       1.783543073093e+00       1.394122255546e+01 
       2.245338037818e+00       8.094599899446e+00 
       2.826713094491e+00       4.653800284768e+00 
       3.558620946502e+00       2.651947323121e+00 
       4.480038340494e+00       1.499127024146e+00 
       5.640034112660e+00       8.413080094923e-01 
       7.100382267814e+00       4.690313209771e-01 
       8.938851670403e+00       2.599151433612e-01 
       1.125334752013e+01       1.432405786964e-01 
