# Matter power spectrum P(k) at redshift z=0.5
# for k=2.09191e-07 to 10.4979 h/Mpc,
# number of wavenumbers equal to 139
#    1:k (h/Mpc)              2:P (Mpc/h)^3        
       2.091914195261e-07       4.177299914186e-01 
       2.633563939707e-07       5.245001982725e-01 
       3.315460567282e-07       6.585604660746e-01 
       4.173917559953e-07       8.268860309384e-01 
       5.254650882959e-07       1.038234972420e+00 
       6.615213526664e-07       1.303603901331e+00 
       8.328060413162e-07       1.636800118999e+00 
       1.048440688509e-06       2.055160017486e+00 
       1.319908625522e-06       2.580451098506e+00 
       1.661666509917e-06       3.240004542040e+00 
       2.091914195261e-06       4.068137248318e+00 
       2.633563939707e-06       5.107937335599e+00 
       3.315460567282e-06       6.413505979652e+00 
       4.173917559953e-06       8.052772207049e+00 
       5.254650882959e-06       1.011102703868e+01 
       6.615213526664e-06       1.269536074613e+01 
       8.328060413162e-06       1.594023385366e+01 
       1.048440688509e-05       2.001447127090e+01 
       1.319908625522e-05       2.513004251883e+01 
       1.661666509917e-05       3.155308299309e+01 
       2.091914195261e-05       3.961772595916e+01 
       2.633563939707e-05       4.974345748327e+01 
       3.315460567282e-05       6.245688244072e+01 
       4.173917559953e-05       7.841900457452e+01 
       5.254650882959e-05       9.845938143328e+01 
       6.615213526664e-05       1.236188152124e+02 
       8.328060413162e-05       1.552025712350e+02 
       1.048440688509e-04       1.948464412510e+02 
       1.319908625522e-04       2.445982045359e+02 
       1.661666509917e-04       3.070170117423e+02 
       2.091914195261e-04       3.852925932101e+02 
       2.633563939707e-04       4.833844107618e+02 
       3.315460567282e-04       6.061771136134e+02 
       4.173917559953e-04       7.596421281457e+02 
       5.254650882959e-04       9.509860693215e+02 
       6.615213526664e-04       1.188757419207e+03 
       8.328060413162e-04       1.482875975107e+03 
       1.048440688509e-03       1.844529266824e+03 
       1.319908625522e-03       2.285794293227e+03 
       1.661666509917e-03       2.818723222744e+03 
       2.091914195261e-03       3.453737397561e+03 
       2.633563939707e-03       4.197222090492e+03 
       3.315460567282e-03       5.048154351850e+03 
       4.173917559953e-03       5.994010144585e+03 
       5.254650882959e-03       7.005907184044e+03 
       6.615213526664e-03       8.033804906652e+03 
       8.328060413162e-03       9.002762202821e+03 
       1.048440688509e-02       9.810910444617e+03 
       1.319908625522e-02       1.033149437004e+04 
       1.661666509916e-02       1.042392637486e+04 
       2.091914192901e-02       9.965318054229e+03 
       2.633560994739e-02       8.918619600278e+03 
       3.314850802949e-02       7.433687719932e+03 
       4.145059701056e-02       5.928260899594e+03 
       4.924273066785e-02       4.983987484719e+03 
       5.481773692489e-02       4.534539291866e+03 
       5.927953754504e-02       4.259418791618e+03 
       6.320076484864e-02       4.050004831990e+03 
       6.682499337496e-02       3.865849257999e+03 
       7.027614371159e-02       3.688713318897e+03 
       7.362645318995e-02       3.510060824160e+03 
       7.692238316993e-02       3.326659267976e+03 
       8.019613935354e-02       3.138614820392e+03 
       8.347142426480e-02       2.948240330403e+03 
       8.676657319918e-02       2.759225074743e+03 
       9.009638451655e-02       2.575925002466e+03 
       9.347324756602e-02       2.402728691956e+03 
       9.690786913054e-02       2.243507501587e+03 
       1.004097585780e-01       2.101174864618e+03 
       1.039875617274e-01       1.977373755368e+03 
       1.076492963551e-01       1.872297833828e+03 
       1.114025216951e-01       1.784641874456e+03 
       1.152544623894e-01       1.711679190268e+03 
       1.192121002271e-01       1.649478345756e+03 
       1.232822426078e-01       1.593286383288e+03 
       1.274715738871e-01       1.538100798712e+03 
       1.317866939643e-01       1.479410096216e+03 
       1.362341472927e-01       1.414001382074e+03 
       1.408204447117e-01       1.340643982423e+03 
       1.455520799815e-01       1.260416464559e+03 
       1.504355425516e-01       1.176499597805e+03 
       1.554773278698e-01       1.093417209490e+03 
       1.606839463852e-01       1.015905934341e+03 
       1.660619323081e-01       9.477319655539e+02 
       1.716178531245e-01       8.907762320182e+02 
       1.773583208319e-01       8.446018438853e+02 
       1.832900058324e-01       8.065925768695e+02 
       1.894196544104e-01       7.726697195141e+02 
       1.957541107072e-01       7.385033370819e+02 
       2.023003441005e-01       7.009393853945e+02 
       2.090654828976e-01       6.591160065541e+02 
       2.160568552629e-01       6.146929444990e+02 
       2.232820383252e-01       5.709749651837e+02 
       2.307489164704e-01       5.313190069484e+02 
       2.384657499107e-01       4.976190489467e+02 
       2.464412547673e-01       4.695769515964e+02 
       2.546846961130e-01       4.450469718762e+02 
       2.632059957180e-01       4.212732807233e+02 
       2.720158566563e-01       3.964099833684e+02 
       2.811259074852e-01       3.704444380620e+02 
       2.905488694563e-01       3.449036657522e+02 
       3.002987512044e-01       3.215709015455e+02 
       3.103910766626e-01       3.011903776066e+02 
       3.208431536829e-01       2.830898902956e+02 
       3.316743931362e-01       2.659050413645e+02 
       3.429066913432e-01       2.487472982470e+02 
       3.545648928469e-01       2.318016677398e+02 
       3.666773562328e-01       2.158663275874e+02 
       3.792766535835e-01       2.013999331494e+02 
       3.924004452440e-01       1.880999787424e+02 
       4.060925873894e-01       1.753706838707e+02 
       4.204045528499e-01       1.630166798234e+02 
       4.353972795814e-01       1.513001748823e+02 
       4.511436123211e-01       1.404063780761e+02 
       4.677315817626e-01       1.301591087847e+02 
       4.852688898705e-01       1.203396709889e+02 
       5.038891712558e-01       1.109753217426e+02 
       5.237609362648e-01       1.021293608247e+02 
       5.451006801345e-01       9.370231349290e+01 
       5.681926777321e-01       8.561514157276e+01 
       5.934199144688e-01       7.787009856248e+01 
       6.213143822855e-01       7.040541394172e+01 
       6.526427741622e-01       6.315927745647e+01 
       6.885607508733e-01       5.607756964288e+01 
       7.309092330116e-01       4.907666692405e+01 
       7.828276087344e-01       4.205811240592e+01 
       8.501274665884e-01       3.489020769559e+01 
       9.445425724586e-01       2.742522240490e+01 
       1.090566878666e+00       1.966977642091e+01 
       1.326753817432e+00       1.242163121516e+01 
       1.663949988341e+00       7.242864611828e+00 
       2.094610955217e+00       4.150800895102e+00 
       2.636957927834e+00       2.360053066174e+00 
       3.319733344256e+00       1.332533789751e+00 
       4.179296667464e+00       7.476100333808e-01 
       5.261422778098e+00       4.170174276465e-01 
       6.623738837540e+00       2.313811923684e-01 
       8.338793143667e+00       1.277569382818e-01 
       1.049791859226e+01       7.022437637506e-02 
