# Matter power spectrum P(k) at redshift z=0
# for k=2.31004e-07 to 11.594 h/Mpc,
# number of wavenumbers equal to 139
#    1:k (h/Mpc)              2:P (Mpc/h)^3        
       2.310036881953e-07       6.524910940990e-01 
       2.908164132872e-07       8.172305405228e-01 
       3.661161728541e-07       1.023563022174e+00 
       4.609129536748e-07       1.281989852446e+00 
       5.802550300064e-07       1.605663691796e+00 
       7.304978025964e-07       2.011057953527e+00 
       9.196422469484e-07       2.518805219317e+00 
       1.157760994443e-06       3.154747335424e+00 
       1.457534736688e-06       3.951250633599e+00 
       1.834927518589e-06       4.948853214474e+00 
       2.310036881953e-06       6.198328128510e+00 
       2.908164132872e-06       7.763267456309e+00 
       3.661161728541e-06       9.723318796481e+00 
       4.609129536748e-06       1.217823886299e+01 
       5.802550300064e-06       1.525297046194e+01 
       7.304978025964e-06       1.910400117039e+01 
       9.196422469484e-06       2.392732719421e+01 
       1.157760994443e-05       2.996842743602e+01 
       1.457534736688e-05       3.753475482847e+01 
       1.834927518589e-05       4.701137953915e+01 
       2.310036881953e-05       5.888057793439e+01 
       2.908164132872e-05       7.374635978948e+01 
       3.661161728541e-05       9.236517312835e+01 
       4.609129536749e-05       1.156843317335e+02 
       5.802550300064e-05       1.448900860901e+02 
       7.304978025964e-05       1.814677151154e+02 
       9.196422469484e-05       2.272765607149e+02 
       1.157760994443e-04       2.846435562078e+02 
       1.457534736688e-04       3.564794865790e+02 
       1.834927518589e-04       4.464228892579e+02 
       2.310036881953e-04       5.590170034776e+02 
       2.908164132872e-04       6.999252237205e+02 
       3.661161728541e-04       8.761896905681e+02 
       4.609129536749e-04       1.096535507619e+03 
       5.802550300064e-04       1.371719384888e+03 
       7.304978025964e-04       1.714916093458e+03 
       9.196422469484e-04       2.142125412516e+03 
       1.157760994443e-03       2.672550983584e+03 
       1.457534736688e-03       3.328835081104e+03 
       1.834927518589e-03       4.136977631670e+03 
       2.310036881953e-03       5.125719754690e+03 
       2.908164132872e-03       6.324993668510e+03 
       3.661161728541e-03       7.763037264422e+03 
       4.609129536749e-03       9.404723564527e+03 
       5.802550300064e-03       1.134105049195e+04 
       7.304978025964e-03       1.351211597231e+04 
       9.196422469484e-03       1.585243381554e+04 
       1.157760994443e-02       1.823504339900e+04 
       1.457534736688e-02       2.045385787543e+04 
       1.834927518258e-02       2.222038813072e+04 
       2.310036230626e-02       2.320377938616e+04 
       2.907968624481e-02       2.315647848776e+04 
       3.648524127523e-02       2.215260812411e+04 
       4.408026293691e-02       2.093075463534e+04 
       4.959839845822e-02       2.018236251790e+04 
       5.388554672251e-02       1.970555288642e+04 
       5.759333531533e-02       1.934841858362e+04 
       6.098975360673e-02       1.904469596935e+04 
       6.420615573717e-02       1.875894307825e+04 
       6.731710592049e-02       1.846949251367e+04 
       7.036963315105e-02       1.816260663946e+04 
       7.339584412849e-02       1.783026973685e+04 
       7.641907735528e-02       1.746929739693e+04 
       7.945719919448e-02       1.708088412111e+04 
       8.252450105256e-02       1.667018434373e+04 
       8.563285554014e-02       1.624572425281e+04 
       8.879245434080e-02       1.581855299903e+04 
       9.201229729805e-02       1.540112468278e+04 
       9.530052690243e-02       1.500596340559e+04 
       9.866466303300e-02       1.464420720917e+04 
       1.021117712108e-01       1.432414734603e+04 
       1.056485852441e-01       1.404989204670e+04 
       1.092815977860e-01       1.382029770382e+04 
       1.130171278121e-01       1.362834748522e+04 
       1.168613711854e-01       1.346121016164e+04 
       1.208204386462e-01       1.330125441747e+04 
       1.249003843733e-01       1.312824962085e+04 
       1.291072274670e-01       1.292276288996e+04 
       1.334469681842e-01       1.267033613896e+04 
       1.379256003988e-01       1.236548802969e+04 
       1.425491215352e-01       1.201421291218e+04 
       1.473235410664e-01       1.163375991987e+04 
       1.522548885728e-01       1.124920328434e+04 
       1.573492222968e-01       1.088740292323e+04 
       1.626126390879e-01       1.056987373046e+04 
       1.680512866115e-01       1.030644616246e+04 
       1.736713786778e-01       1.009147365469e+04 
       1.794792145357e-01       9.904059871977e+03 
       1.854812029715e-01       9.713336149793e+03 
       1.916838920518e-01       9.488576484451e+03 
       1.980940053547e-01       9.211391821639e+03 
       2.047184855592e-01       8.884525476414e+03 
       2.115645463034e-01       8.531695424724e+03 
       2.186397333002e-01       8.187143844037e+03 
       2.259519958169e-01       7.879607730522e+03 
       2.335097698056e-01       7.618700926610e+03 
       2.413220742244e-01       7.390488603951e+03 
       2.493986224470e-01       7.165172098594e+03 
       2.577499511365e-01       6.914396016308e+03 
       2.663875696075e-01       6.628955753243e+03 
       2.753241335553e-01       6.324364572684e+03 
       2.845736481633e-01       6.028814464232e+03 
       2.941517070985e-01       5.762213118269e+03 
       3.040757758947e-01       5.522513003688e+03 
       3.143655308803e-01       5.289802631464e+03 
       3.250432683994e-01       5.044993179012e+03 
       3.361344039696e-01       4.786971988847e+03 
       3.476680877812e-01       4.531492511916e+03 
       3.596779724214e-01       4.293139898107e+03 
       3.722031821768e-01       4.070570507388e+03 
       3.852895527529e-01       3.851229486454e+03 
       3.989912389192e-01       3.628654924360e+03 
       4.133728306129e-01       3.409561023640e+03 
       4.285121839720e-01       3.201918911482e+03 
       4.445042772097e-01       3.003443344879e+03 
       4.614665677479e-01       2.808135548821e+03 
       4.795466028314e-01       2.617338803670e+03 
       4.989331076020e-01       2.434964600754e+03 
       5.198726111730e-01       2.259229618015e+03 
       5.426952165138e-01       2.088498507598e+03 
       5.678561097152e-01       1.924393030986e+03 
       5.960055017335e-01       1.766052406490e+03 
       6.281128965685e-01       1.612911837563e+03 
       6.657021224901e-01       1.464559223059e+03 
       7.113293336322e-01       1.319804570176e+03 
       7.696354523971e-01       1.176897053597e+03 
       8.498204630693e-01       1.032550498695e+03 
       9.711827290294e-01       8.800696292062e+02 
       1.167997348940e+00       7.090319061629e+02 
       1.459925589337e+00       5.277396919866e+02 
       1.837520409584e+00       3.685314231261e+02 
       2.313297637519e+00       2.457918429627e+02 
       2.912269175988e+00       1.587165855254e+02 
       3.666329671636e+00       1.002592860078e+02 
       4.615635591637e+00       6.240995147579e+01 
       5.810740937894e+00       3.847446048101e+01 
       7.315289428067e+00       2.356764601533e+01 
       9.209403755623e+00       1.437559823921e+01 
       1.159395241543e+01       8.744116664890e+00 
