# Matter power spectrum P(k) at redshift z=2
# for k=1.80241e-07 to 11.3874 h/Mpc,
# number of wavenumbers equal to 140
#    1:k (h/Mpc)              2:P (Mpc/h)^3        
       1.802406768921e-07       4.861095759957e-01 
       2.269095683785e-07       6.046501655875e-01 
       2.856622218109e-07       7.520975530338e-01 
       3.596274302273e-07       9.355008257068e-01 
       4.527441106914e-07       1.163628030334e+00 
       5.699710659895e-07       1.447385351617e+00 
       7.175510589616e-07       1.800338508225e+00 
       9.033432623866e-07       2.239361294857e+00 
       1.137241788592e-06       2.785442272450e+00 
       1.431702587012e-06       3.464688175908e+00 
       1.802406768921e-06       4.309571999265e+00 
       2.269095683785e-06       5.360485430205e+00 
       2.856622218109e-06       6.667669839407e+00 
       3.596274302273e-06       8.293618123525e+00 
       4.527441106914e-06       1.031606218990e+01 
       5.699710659895e-06       1.283168885383e+01 
       7.175510589616e-06       1.596076164250e+01 
       9.033432623866e-06       1.985286922256e+01 
       1.137241788592e-05       2.469407475762e+01 
       1.431702587012e-05       3.071580695142e+01 
       1.802406768921e-05       3.820591589389e+01 
       2.269095683785e-05       4.752241830023e+01 
       2.856622218109e-05       5.911058158849e+01 
       3.596274302273e-05       7.352414832536e+01 
       4.527441106914e-05       9.145168581129e+01 
       5.699710659895e-05       1.137492617868e+02 
       7.175510589616e-05       1.414808927528e+02 
       9.033432623866e-05       1.759684726791e+02 
       1.137241788592e-04       2.188531274787e+02 
       1.431702587012e-04       2.721700721665e+02 
       1.802406768921e-04       3.384389038385e+02 
       2.269095683785e-04       4.207705316772e+02 
       2.856622218109e-04       5.229900990067e+02 
       3.596274302273e-04       6.497715378549e+02 
       4.527441106914e-04       8.067730907472e+02 
       5.699710659895e-04       1.000754454767e+03 
       7.175510589616e-04       1.239647852765e+03 
       9.033432623866e-04       1.532551037658e+03 
       1.137241788592e-03       1.889598240771e+03 
       1.431702587012e-03       2.321590194957e+03 
       1.802406768921e-03       2.839119870683e+03 
       2.269095683785e-03       3.451007400860e+03 
       2.856622218109e-03       4.162073184043e+03 
       3.596274302273e-03       4.969933732937e+03 
       4.527441106914e-03       5.860571668710e+03 
       5.699710659895e-03       6.802910011992e+03 
       7.175510589617e-03       7.742538691417e+03 
       9.033432623866e-03       8.595474836034e+03 
       1.137241788592e-02       9.244755801686e+03 
       1.431702586928e-02       9.547321905314e+03 
       1.802406551408e-02       9.366566086414e+03 
       2.269013901056e-02       8.649061362565e+03 
       2.850256806132e-02       7.541922353342e+03 
       3.473770380922e-02       6.521022863471e+03 
       3.937535556422e-02       5.957576987935e+03 
       4.291236300852e-02       5.622089126574e+03 
       4.593925226532e-02       5.377508191121e+03 
       4.869595646371e-02       5.172909481515e+03 
       5.129739384670e-02       4.984724183341e+03 
       5.380772718304e-02       4.800535183398e+03 
       5.626693897412e-02       4.613724526647e+03 
       5.870207211998e-02       4.421317206376e+03 
       6.113263665234e-02       4.222929098946e+03 
       6.357347417622e-02       4.020110163091e+03 
       6.603639264485e-02       3.815815462213e+03 
       6.853115584121e-02       3.613899036946e+03 
       7.106611137513e-02       3.418601762417e+03 
       7.364860504373e-02       3.234043771129e+03 
       7.628526314309e-02       3.063750121661e+03 
       7.898218997731e-02       2.910241780248e+03 
       8.174510906845e-02       2.774721869208e+03 
       8.457946588510e-02       2.656880840019e+03 
       8.749050358236e-02       2.554840571569e+03 
       9.048331938254e-02       2.465263353370e+03 
       9.356290680047e-02       2.383657127788e+03 
       9.673418736221e-02       2.304899950957e+03 
       1.000020344500e-01       2.223976580750e+03 
       1.033712912353e-01       2.136849021792e+03 
       1.068467842165e-01       2.041296920652e+03 
       1.104333335775e-01       1.937492588396e+03 
       1.141357613910e-01       1.828083583706e+03 
       1.179588985566e-01       1.717662791625e+03 
       1.219075912847e-01       1.611697124732e+03 
       1.259867078807e-01       1.515174463345e+03 
       1.302011465556e-01       1.431329872685e+03 
       1.345558449649e-01       1.360786031300e+03 
       1.390557921661e-01       1.301338943203e+03 
       1.437060436761e-01       1.248507429947e+03 
       1.485117403044e-01       1.196829798193e+03 
       1.534781314345e-01       1.141656885367e+03 
       1.586106034348e-01       1.080855915166e+03 
       1.639147138918e-01       1.015638329298e+03 
       1.693962323939e-01       9.499654390778e+02 
       1.750611886510e-01       8.886889992846e+02 
       1.809159288237e-01       8.353008745072e+02 
       1.869671810747e-01       7.903794241413e+02 
       1.932221315522e-01       7.514633843827e+02 
       1.996885122842e-01       7.144500734334e+02 
       2.063747028409e-01       6.758985376737e+02 
       2.132898481162e-01       6.349641672735e+02 
       2.204439952493e-01       5.936540037530e+02 
       2.278482535771e-01       5.551460066854e+02 
       2.355149826786e-01       5.214029761111e+02 
       2.434580151043e-01       4.918628158777e+02 
       2.516929224474e-01       4.641425455128e+02 
       2.602373361831e-01       4.361489810208e+02 
       2.691113384813e-01       4.077752904229e+02 
       2.783379434039e-01       3.806091638678e+02 
       2.879436961842e-01       3.560216367492e+02 
       2.979594286172e-01       3.337283412452e+02 
       3.084212235036e-01       3.123474743933e+02 
       3.193716629793e-01       2.911506028680e+02 
       3.308614683239e-01       2.707382172669e+02 
       3.429516889070e-01       2.518385881020e+02 
       3.557166762210e-01       2.341493520959e+02 
       3.692482045226e-01       2.169770630036e+02 
       3.836613067926e-01       2.003756562904e+02 
       3.991027475374e-01       1.846975510888e+02 
       4.157636764868e-01       1.696977810027e+02 
       4.338991506589e-01       1.551155915010e+02 
       4.538594103308e-01       1.410766166804e+02 
       4.761422446480e-01       1.274269397668e+02 
       5.014853378284e-01       1.140276501569e+02 
       5.310393953907e-01       1.007853906363e+02 
       5.667167113156e-01       8.749651849026e+01 
       6.119506686650e-01       7.392803299397e+01 
       6.734707959947e-01       5.977728042552e+01 
       7.653690198619e-01       4.484602185081e+01 
       9.139825917784e-01       2.990333775368e+01 
       1.139189172071e+00       1.790718187734e+01 
       1.433594792348e+00       1.037723221459e+01 
       1.804783113649e+00       5.950564268628e+00 
       2.272087314014e+00       3.382667255604e+00 
       2.860388457425e+00       1.907880615698e+00 
       3.601015716655e+00       1.068447042231e+00 
       4.533410193967e+00       5.944912898862e-01 
       5.707225295271e+00       3.288333907593e-01 
       7.184970955052e+00       1.809098460609e-01 
       9.045342518318e+00       9.903664290630e-02 
       1.138741155469e+01       5.396903340986e-02 
