# Matter power spectrum P(k) at redshift z=2
# for k=2.06325e-07 to 10.3553 h/Mpc,
# number of wavenumbers equal to 139
#    1:k (h/Mpc)              2:P (Mpc/h)^3        
       2.063251846276e-07       1.248256574030e-01 
       2.597480180208e-07       1.564493855479e-01 
       3.270033805496e-07       1.960847692765e-01 
       4.116728655164e-07       2.457615067724e-01 
       5.182654317448e-07       3.080235064346e-01 
       6.524575220780e-07       3.860591582822e-01 
       8.213953546602e-07       4.838646090027e-01 
       1.034075485111e-06       6.064484013418e-01 
       1.301823905920e-06       7.600879572869e-01 
       1.638899196844e-06       9.526510396071e-01 
       2.063251846276e-06       1.193998651427e+00 
       2.597480180208e-06       1.496490007727e+00 
       3.270033805496e-06       1.875615432974e+00 
       4.116728655164e-06       2.350789596232e+00 
       5.182654317448e-06       2.946345689448e+00 
       6.524575220780e-06       3.692781454999e+00 
       8.213953546602e-06       4.628320835785e+00 
       1.034075485111e-05       5.800871160559e+00 
       1.301823905920e-05       7.270475984794e+00 
       1.638899196844e-05       9.112388958622e+00 
       2.063251846276e-05       1.142092569578e+01 
       2.597480180208e-05       1.431428999459e+01 
       3.270033805496e-05       1.794061980194e+01 
       4.116728655164e-05       2.248555901901e+01 
       5.182654317448e-05       2.818173594860e+01 
       6.524575220780e-05       3.532061998626e+01 
       8.213953546602e-05       4.426733644959e+01 
       1.034075485111e-04       5.547914434929e+01 
       1.301823905920e-04       6.952841722047e+01 
       1.638899196844e-04       8.713109603580e+01 
       2.063251846276e-04       1.091816674853e+02 
       2.597480180208e-04       1.367956842768e+02 
       3.270033805496e-04       1.713605497978e+02 
       4.116728655164e-04       2.145945216131e+02 
       5.182654317448e-04       2.686123878238e+02 
       6.524575220780e-04       3.359939117998e+02 
       8.213953546602e-04       4.198483074433e+02 
       1.034075485111e-03       5.238654541679e+02 
       1.301823905920e-03       6.523399455378e+02 
       1.638899196844e-03       8.101339717314e+02 
       2.063251846276e-03       1.002500078910e+03 
       2.597480180208e-03       1.234674720069e+03 
       3.270033805496e-03       1.511218356553e+03 
       4.116728655164e-03       1.832833372413e+03 
       5.182654317448e-03       2.202043508379e+03 
       6.524575220780e-03       2.611021202025e+03 
       8.213953546602e-03       3.044550979376e+03 
       1.034075485111e-02       3.475058691098e+03 
       1.301823905920e-02       3.859371325229e+03 
       1.638899196552e-02       4.138582155171e+03 
       2.063251270550e-02       4.247242571568e+03 
       2.597306884714e-02       4.140744356327e+03 
       3.258806236110e-02       3.844911943313e+03 
       3.937635701620e-02       3.525650770702e+03 
       4.430947974209e-02       3.327744366452e+03 
       4.814124860416e-02       3.194725293159e+03 
       5.145477899725e-02       3.089509861256e+03 
       5.448983657243e-02       2.996889361563e+03 
       5.736390848848e-02       2.909346438106e+03 
       6.014367378812e-02       2.822740606927e+03 
       6.287118192663e-02       2.734787958915e+03 
       6.557513678698e-02       2.644425043369e+03 
       6.827640141316e-02       2.551489053974e+03 
       7.099094588318e-02       2.456515827501e+03 
       7.373154390247e-02       2.360571783413e+03 
       7.650880663683e-02       2.265087283237e+03 
       7.933184246591e-02       2.171679560205e+03 
       8.220869426772e-02       2.081967201358e+03 
       8.514663846413e-02       1.997384520763e+03 
       8.815239488144e-02       1.919010176892e+03 
       9.123227716564e-02       1.847423699051e+03 
       9.439230242211e-02       1.782606356180e+03 
       9.763827216880e-02       1.723901860824e+03 
       1.009758326568e-01       1.670051917946e+03 
       1.044105200713e-01       1.619320295647e+03 
       1.079477944920e-01       1.569710712003e+03 
       1.115930654243e-01       1.519268640222e+03 
       1.153517110038e-01       1.466430019591e+03 
       1.192290925082e-01       1.410351906301e+03 
       1.232305654964e-01       1.351138050051e+03 
       1.273614886861e-01       1.289875830005e+03 
       1.316272315488e-01       1.228437713448e+03 
       1.360331815099e-01       1.169064723016e+03 
       1.405847515914e-01       1.113821418817e+03 
       1.452873892944e-01       1.064059140538e+03 
       1.501465875051e-01       1.020035831483e+03 
       1.551678981846e-01       9.808129516857e+02 
       1.603569496025e-01       9.444970815317e+02 
       1.657194678617e-01       9.088112653369e+02 
       1.712613034643e-01       8.718626351885e+02 
       1.769884636747e-01       8.328440528276e+02 
       1.829071514554e-01       7.923511645356e+02 
       1.890238117898e-01       7.521107138137e+02 
       1.953451862750e-01       7.141895563904e+02 
       2.018783769731e-01       6.800375219980e+02 
       2.086309206706e-01       6.498251882447e+02 
       2.156108749212e-01       6.224132629640e+02 
       2.228269175670e-01       5.960014600865e+02 
       2.302884618608e-01       5.691502619197e+02 
       2.380057898888e-01       5.415897640741e+02 
       2.459902077593e-01       5.142689340196e+02 
       2.542542270335e-01       4.885797964116e+02 
       2.628117782108e-01       4.653126411178e+02 
       2.716784638600e-01       4.441230429338e+02 
       2.808718613628e-01       4.239091758617e+02 
       2.904118884386e-01       4.037803095176e+02 
       3.003212489950e-01       3.837658670878e+02 
       3.106259828867e-01       3.646045243657e+02 
       3.213561516244e-01       3.468579542885e+02 
       3.325467041125e-01       3.303163136007e+02 
       3.442385838858e-01       3.143304406967e+02 
       3.564801649193e-01       2.986141532460e+02 
       3.693291415016e-01       2.834711019405e+02 
       3.828550565349e-01       2.691915991013e+02 
       3.971427449804e-01       2.555762928604e+02 
       4.122971178196e-01       2.423047683391e+02 
       4.284499581303e-01       2.294223653737e+02 
       4.457698220039e-01       2.170563480477e+02 
       4.644768837809e-01       2.050443029017e+02 
       4.848659443501e-01       1.932587849791e+02 
       5.073434896190e-01       1.817230802764e+02 
       5.324901278250e-01       1.703031257126e+02 
       5.611715138323e-01       1.588827043998e+02 
       5.947481195264e-01       1.473143608442e+02 
       6.355018064397e-01       1.353643509615e+02 
       6.875749128660e-01       1.226918295334e+02 
       7.591779056565e-01       1.087852351169e+02 
       8.675334301012e-01       9.301101026521e+01 
       1.043251952721e+00       7.549882346544e+01 
       1.303960841245e+00       5.905286957256e+01 
       1.641214389723e+00       4.576970777342e+01 
       2.066163344528e+00       3.506720153236e+01 
       2.601145534887e+00       2.633429694455e+01 
       3.274648213643e+00       1.924819212398e+01 
       4.122537850842e+00       1.362374213145e+01 
       5.189967661508e+00       9.314262431791e+00 
       6.533782175463e+00       6.156405997371e+00 
       8.225544415818e+00       3.948888914307e+00 
       1.035534689091e+01       2.470332453195e+00 
