# Matter power spectrum P(k) at redshift z=1
# for k=2.04385e-07 to 10.2578 h/Mpc,
# number of wavenumbers equal to 139
#    1:k (h/Mpc)              2:P (Mpc/h)^3        
       2.043849518846e-07       3.661551054418e-01 
       2.573054097158e-07       4.583477395196e-01 
       3.239283188833e-07       5.737531639850e-01 
       4.078015922420e-07       7.182160283941e-01 
       5.133917874436e-07       8.990525813344e-01 
       6.463219674191e-07       1.125421198178e+00 
       8.136711489847e-07       1.408786201914e+00 
       1.024351286301e-06       1.763498467105e+00 
       1.289581864928e-06       2.207522211107e+00 
       1.623487380347e-06       2.763344779729e+00 
       2.043849518846e-06       3.459115500482e+00 
       2.573054097158e-06       4.330071278231e+00 
       3.239283188833e-06       5.420321124824e+00 
       4.078015922420e-06       6.785079986185e+00 
       5.133917874436e-06       8.493464973303e+00 
       6.463219674191e-06       1.063199556104e+01 
       8.136711489847e-06       1.330897492313e+01 
       1.024351286301e-05       1.665997409208e+01 
       1.289581864928e-05       2.085469630959e+01 
       1.623487380347e-05       2.610556842115e+01 
       2.043849518846e-05       3.267849291277e+01 
       2.573054097158e-05       4.090630206803e+01 
       3.239283188833e-05       5.120558962763e+01 
       4.078015922420e-05       6.409776046858e+01 
       5.133917874436e-05       8.023534074625e+01 
       6.463219674191e-05       1.004348343657e+02 
       8.136711489847e-05       1.257176975909e+02 
       1.024351286301e-04       1.573613257013e+02 
       1.289581864928e-04       1.969622784954e+02 
       1.623487380347e-04       2.465142553018e+02 
       2.043849518846e-04       3.085034385161e+02 
       2.573054097158e-04       3.860235215260e+02 
       3.239283188833e-04       4.829116331547e+02 
       4.078015922420e-04       6.039039447825e+02 
       5.133917874436e-04       7.548055861754e+02 
       6.463219674191e-04       9.426638949478e+02 
       8.136711489847e-04       1.175928101561e+03 
       1.024351286301e-03       1.464569633280e+03 
       1.289581864928e-03       1.820105102843e+03 
       1.623487380347e-03       2.255383220586e+03 
       2.043849518846e-03       2.783948868828e+03 
       2.573054097158e-03       3.418851821478e+03 
       3.239283188833e-03       4.170640386513e+03 
       4.078015922420e-03       5.044298973983e+03 
       5.133917874436e-03       6.034699367941e+03 
       6.463219674191e-03       7.120500687038e+03 
       8.136711489847e-03       8.256506886484e+03 
       1.024351286301e-02       9.365031530900e+03 
       1.289581864928e-02       1.032888889563e+04 
       1.623487380149e-02       1.099321165784e+04 
       2.043849091133e-02       1.119183170599e+04 
       2.572915099760e-02       1.081973008646e+04 
       3.229688346460e-02       9.958473340278e+03 
       3.914599369805e-02       9.050000129193e+03 
       4.415759028968e-02       8.492376923613e+03 
       4.802589144992e-02       8.122772636356e+03 
       5.135924986030e-02       7.832414280330e+03 
       5.440655629513e-02       7.577891691712e+03 
       5.728881870032e-02       7.338272312585e+03 
       6.007433094837e-02       7.102296815327e+03 
       6.280598489978e-02       6.863924018505e+03 
       6.551296700654e-02       6.620469547443e+03 
       6.821643676559e-02       6.371667034050e+03 
       7.093255642116e-02       6.119071596493e+03 
       7.367422962193e-02       5.865572483782e+03 
       7.645215843560e-02       5.614922336618e+03 
       7.927551662399e-02       5.371253526882e+03 
       8.215239519599e-02       5.138586503539e+03 
       8.509010671585e-02       4.920354132632e+03 
       8.809539863115e-02       4.718976220514e+03 
       9.117460604216e-02       4.535520630609e+03 
       9.433376298270e-02       4.369489207606e+03 
       9.757868454426e-02       4.218766686569e+03 
       1.009150280485e-01       4.079769194889e+03 
       1.043483388781e-01       3.947821542970e+03 
       1.078840849085e-01       3.817769439368e+03 
       1.115276823928e-01       3.684785331953e+03 
       1.152845154312e-01       3.545257075106e+03 
       1.191599506776e-01       3.397577293324e+03 
       1.231593486156e-01       3.242609390302e+03 
       1.272880725249e-01       3.083634812768e+03 
       1.315514961204e-01       2.925701523946e+03 
       1.359550107596e-01       2.774466815697e+03 
       1.405040330536e-01       2.634798041471e+03 
       1.452040136859e-01       2.509492292327e+03 
       1.500604482196e-01       2.398474752391e+03 
       1.550788906583e-01       2.298747062178e+03 
       1.602649705189e-01       2.205206840150e+03 
       1.656244141664e-01       2.112232339089e+03 
       1.711630711601e-01       2.015615535586e+03 
       1.768869463686e-01       1.914133046775e+03 
       1.828022386267e-01       1.809999009356e+03 
       1.889153867486e-01       1.707842132464e+03 
       1.952331237775e-01       1.612570129865e+03 
       2.017625404532e-01       1.527103487414e+03 
       2.085111590420e-01       1.451078694432e+03 
       2.154870188925e-01       1.381192180536e+03 
       2.226987753972e-01       1.313084997333e+03 
       2.301558144616e-01       1.243815657742e+03 
       2.378683851550e-01       1.173447405683e+03 
       2.458477539709e-01       1.104653953232e+03 
       2.541063851237e-01       1.040578352497e+03 
       2.626581526345e-01       9.825099571746e+02 
       2.715185917092e-01       9.291112909255e+02 
       2.807051992622e-01       8.777417752816e+02 
       2.902377966019e-01       8.267367256649e+02 
       3.001389716062e-01       7.766127588763e+02 
       3.104346236769e-01       7.291086479171e+02 
       3.211546430962e-01       6.851447727953e+02 
       3.323337682584e-01       6.439189286301e+02 
       3.440126813716e-01       6.040362511586e+02 
       3.562394283931e-01       5.651575025960e+02 
       3.690712867013e-01       5.280411643167e+02 
       3.825772617819e-01       4.931073081360e+02 
       3.968414847399e-01       4.597776465510e+02 
       4.119679279931e-01       4.274884645654e+02 
       4.280870972468e-01       3.964321395196e+02 
       4.453657689845e-01       3.667609352891e+02 
       4.640215704702e-01       3.380910035141e+02 
       4.843455408395e-01       3.102426379893e+02 
       5.067384015567e-01       2.832296118629e+02 
       5.317715323445e-01       2.567711711160e+02 
       5.602950197119e-01       2.306793460467e+02 
       5.936413694520e-01       2.046763704014e+02 
       6.340383241721e-01       1.783847153384e+02 
       6.855144389918e-01       1.512834351764e+02 
       7.560239605717e-01       1.227163496360e+02 
       8.622474466659e-01       9.225868742750e+01 
       1.034397514233e+00       6.168153497962e+01 
       1.291734872346e+00       3.732501128583e+01 
       1.625749218396e+00       2.193803945728e+01 
       2.046692942399e+00       1.275180608447e+01 
       2.576633749062e+00       7.342625933806e+00 
       3.243789703579e+00       4.192208104922e+00 
       4.083689288352e+00       2.375198263334e+00 
       5.141060218978e+00       1.336391424085e+00 
       6.472211353235e+00       7.471672285214e-01 
       8.148031343091e+00       4.153297397717e-01 
       1.025776371391e+01       2.296524261434e-01 
