# Matter power spectrum P(k) at redshift z=0
# for k=1.84924e-07 to 11.6812 h/Mpc,
# number of wavenumbers equal to 140
#    1:k (h/Mpc)              2:P (Mpc/h)^3        
       1.849237584583e-07       1.920180216871e+00 
       2.328052187677e-07       2.390077538980e+00 
       2.930844059049e-07       2.974965885701e+00 
       3.689714063943e-07       3.702985308970e+00 
       4.645074797352e-07       4.609162158004e+00 
       5.847802702071e-07       5.737094258940e+00 
       7.361947424796e-07       7.141048482386e+00 
       9.268142693368e-07       8.888571613871e+00 
       1.166790035682e-06       1.106374013732e+01 
       1.468901626148e-06       1.377120527635e+01 
       1.849237584583e-06       1.714122789296e+01 
       2.328052187677e-06       2.133594544805e+01 
       2.930844059049e-06       2.655717248129e+01 
       3.689714063943e-06       3.305610978416e+01 
       4.645074797352e-06       4.114542914586e+01 
       5.847802702071e-06       5.121431463569e+01 
       7.361947424796e-06       6.374718314372e+01 
       9.268142693368e-06       7.934698302554e+01 
       1.166790035682e-05       9.876418820025e+01 
       1.468901626148e-05       1.229328755096e+02 
       1.849237584583e-05       1.530156070325e+02 
       2.328052187677e-05       1.904592490738e+02 
       2.930844059049e-05       2.370643587640e+02 
       3.689714063943e-05       2.950713692016e+02 
       4.645074797352e-05       3.672675084879e+02 
       5.847802702071e-05       4.571191822036e+02 
       7.361947424796e-05       5.689353777949e+02 
       9.268142693368e-05       7.080683739604e+02 
       1.166790035682e-04       8.811583622708e+02 
       1.468901626148e-04       1.096427931647e+03 
       1.849237584583e-04       1.364029696088e+03 
       2.328052187677e-04       1.696444039794e+03 
       2.930844059049e-04       2.108912009007e+03 
       3.689714063943e-04       2.619869654189e+03 
       4.645074797352e-04       3.251327085058e+03 
       5.847802702071e-04       4.029114373975e+03 
       7.361947424796e-04       4.982886519207e+03 
       9.268142693368e-04       6.145660490082e+03 
       1.166790035682e-03       7.552375969103e+03 
       1.468901626148e-03       9.236886537321e+03 
       1.849237584583e-03       1.122702080677e+04 
       2.328052187677e-03       1.353698858862e+04 
       2.930844059049e-03       1.615717723693e+04 
       3.689714063943e-03       1.904183746489e+04 
       4.645074797352e-03       2.209374340890e+04 
       5.847802702071e-03       2.508330605486e+04 
       7.361947424796e-03       2.787165830060e+04 
       9.268142693368e-03       3.007844571854e+04 
       1.166790035682e-02       3.128442935218e+04 
       1.468901626147e-02       3.102532274884e+04 
       1.849237579151e-02       2.891614993342e+04 
       2.328046859346e-02       2.492060227906e+04 
       2.929937346011e-02       1.972326554437e+04 
       3.653480737220e-02       1.494803065535e+04 
       4.298384384952e-02       1.236124922323e+04 
       4.761237838261e-02       1.124631595890e+04 
       5.137209092869e-02       1.062329380508e+04 
       5.470233510783e-02       1.018242820041e+04 
       5.779411399575e-02       9.803835383759e+03 
       6.074648916881e-02       9.430556137459e+03 
       6.361800312014e-02       9.034056467253e+03 
       6.644669453292e-02       8.602228461906e+03 
       6.925914246717e-02       8.134134095054e+03 
       7.207503707900e-02       7.636938608248e+03 
       7.490969448544e-02       7.123486329274e+03 
       7.777553531218e-02       6.609998289956e+03 
       8.068300122941e-02       6.113808698862e+03 
       8.364114809948e-02       5.651252246028e+03 
       8.665804368437e-02       5.235884714875e+03 
       8.974104223662e-02       4.877185384658e+03 
       9.289697871615e-02       4.579795742025e+03 
       9.613230887542e-02       4.343240741762e+03 
       9.945321187231e-02       4.162017732077e+03 
       1.028656663072e-01       4.025971248534e+03 
       1.063755070129e-01       3.920995244376e+03 
       1.099884676624e-01       3.830246306063e+03 
       1.137102127921e-01       3.736085758831e+03 
       1.175463618787e-01       3.622783446585e+03 
       1.215025074643e-01       3.479606256753e+03 
       1.255842289044e-01       3.303449338163e+03 
       1.297971030247e-01       3.099949939399e+03 
       1.341467127920e-01       2.882328805027e+03 
       1.386386549777e-01       2.668026809466e+03 
       1.432785477191e-01       2.474148665578e+03 
       1.480720388330e-01       2.313197470205e+03 
       1.530248157063e-01       2.190278297948e+03 
       1.581426175696e-01       2.102187220465e+03 
       1.634312509462e-01       2.038290259771e+03 
       1.688966090613e-01       1.983154569823e+03 
       1.745446959916e-01       1.920958366411e+03 
       1.803816563357e-01       1.840924644740e+03 
       1.864138111991e-01       1.741586462229e+03 
       1.926477013111e-01       1.631218514250e+03 
       1.990901381446e-01       1.523600238052e+03 
       2.057482639886e-01       1.431316060979e+03 
       2.126296220569e-01       1.360230813679e+03 
       2.197422378998e-01       1.307535505577e+03 
       2.270947136569e-01       1.263739846094e+03 
       2.346963370552e-01       1.217795804721e+03 
       2.425572075519e-01       1.163255986571e+03 
       2.506883826861e-01       1.101754852534e+03 
       2.591020485794e-01       1.040948581565e+03 
       2.678117196874e-01       9.883943615241e+02 
       2.768324744394e-01       9.462509587739e+02 
       2.861812354483e-01       9.105040808823e+02 
       2.958771057160e-01       8.748313570471e+02 
       3.059417759689e-01       8.360046371320e+02 
       3.164000233486e-01       7.961100573310e+02 
       3.272803287387e-01       7.594768761703e+02 
       3.386156499483e-01       7.278406836410e+02 
       3.504444021905e-01       6.989857854726e+02 
       3.628117179637e-01       6.699141993771e+02 
       3.757710890756e-01       6.404232260599e+02 
       3.893865398290e-01       6.125280894711e+02 
       4.037355518847e-01       5.870044126108e+02 
       4.189130744342e-01       5.624617080578e+02 
       4.350371371540e-01       5.379636882487e+02 
       4.522568911986e-01       5.142432967764e+02 
       4.707644362942e-01       4.915927776844e+02 
       4.908127497067e-01       4.692217750804e+02 
       5.127438292910e-01       4.470335881175e+02 
       5.370346997820e-01       4.251315252280e+02 
       5.643762895889e-01       4.030110077358e+02 
       5.958164743601e-01       3.804758074556e+02 
       6.330371913433e-01       3.570180224166e+02 
       6.789335286398e-01       3.319685612125e+02 
       7.389228959339e-01       3.042063350947e+02 
       8.240446075699e-01       2.719449181252e+02 
       9.571584689335e-01       2.329069115053e+02 
       1.171210039670e+00       1.879630323489e+02 
       1.470644752114e+00       1.456457951174e+02 
       1.851343013566e+00       1.103063715774e+02 
       2.330702346948e+00       8.147545844737e+01 
       2.934180411609e+00       5.849244576369e+01 
       3.693914282963e+00       4.076279405274e+01 
       4.650362559812e+00       2.760669520905e+01 
       5.854459600603e+00       1.821983016263e+01 
       7.370327963522e+00       1.175826741920e+01 
       9.278693166534e+00       7.446902335446e+00 
       1.168118261559e+01       4.644550087606e+00 
