# Matter power spectrum P(k) at redshift z=1.5
# for k=1.5759e-07 to 12.5306 h/Mpc,
# number of wavenumbers equal to 141
#    1:k (h/Mpc)              2:P (Mpc/h)^3        
       1.575898001593e-07       7.938692979865e-01 
       1.983938040601e-07       9.893706118961e-01 
       2.497630014738e-07       1.233016832579e+00 
       3.144329894814e-07       1.536664309822e+00 
       3.958476807645e-07       1.915089183070e+00 
       4.983427045142e-07       2.386706419355e+00 
       6.273762944952e-07       2.974465923907e+00 
       7.898199598972e-07       3.706969328818e+00 
       9.943244182569e-07       4.619861803858e+00 
       1.251780277711e-06       5.757566614895e+00 
       1.575898001593e-06       7.175446831436e+00 
       1.983938040601e-06       8.942499364773e+00 
       2.497630014738e-06       1.114471241061e+01 
       3.144329894814e-06       1.388924963479e+01 
       3.958476807645e-06       1.730966461224e+01 
       4.983427045142e-06       2.157239910138e+01 
       6.273762944952e-06       2.688488100892e+01 
       7.898199598972e-06       3.350561541265e+01 
       9.943244182569e-06       4.175675832754e+01 
       1.251780277711e-05       5.203978233435e+01 
       1.575898001593e-05       6.485499105927e+01 
       1.983938040601e-05       8.082582144835e+01 
       2.497630014738e-05       1.007290955879e+02 
       3.144329894814e-05       1.255326528049e+02 
       3.958476807645e-05       1.564421119158e+02 
       4.983427045142e-05       1.949588789173e+02 
       6.273762944952e-05       2.429519079980e+02 
       7.898199598972e-05       3.027460908744e+02 
       9.943244182569e-05       3.772303732866e+02 
       1.251780277711e-04       4.699885336872e+02 
       1.575898001593e-04       5.854545441069e+02 
       1.983938040601e-04       7.290917501202e+02 
       2.497630014738e-04       9.075894875223e+02 
       3.144329894814e-04       1.129060687627e+03 
       3.958476807645e-04       1.403208914166e+03 
       4.983427045142e-04       1.741416370048e+03 
       6.273762944952e-04       2.156695123536e+03 
       7.898199598972e-04       2.663443950081e+03 
       9.943244182569e-04       3.276900988033e+03 
       1.251780277711e-03       4.011953754410e+03 
       1.575898001593e-03       4.880812853055e+03 
       1.983938040601e-03       5.889570763420e+03 
       2.497630014738e-03       7.033771572047e+03 
       3.144329894814e-03       8.292747943529e+03 
       3.958476807645e-03       9.622352251606e+03 
       4.983427045142e-03       1.094359504325e+04 
       6.273762944952e-03       1.215016095644e+04 
       7.898199598972e-03       1.308219101019e+04 
       9.943244182569e-03       1.353938917959e+04 
       1.251780277709e-02       1.329795341931e+04 
       1.575897988713e-02       1.217762064699e+04 
       1.983928298942e-02       1.018757229499e+04 
       2.496288698846e-02       7.718693190090e+03 
       3.099903216498e-02       5.624009960232e+03 
       3.608477296443e-02       4.621621213009e+03 
       3.977369387210e-02       4.218495476986e+03 
       4.281625562827e-02       4.013911102937e+03 
       4.553307150143e-02       3.882919415066e+03 
       4.806709051990e-02       3.774347953157e+03 
       5.049398293120e-02       3.662239040631e+03 
       5.285912504013e-02       3.532541812351e+03 
       5.519232478540e-02       3.378581079546e+03 
       5.751459079609e-02       3.199157580599e+03 
       5.984159770718e-02       2.997422046886e+03 
       6.218561187834e-02       2.779865886974e+03 
       6.455663251809e-02       2.555208908986e+03 
       6.696310356839e-02       2.333176114023e+03 
       6.941237681835e-02       2.123272053435e+03 
       7.191102376424e-02       1.933707187602e+03 
       7.446505169605e-02       1.770609004662e+03 
       7.708005698034e-02       1.637579659172e+03 
       7.976133587845e-02       1.535563708123e+03 
       8.251396586657e-02       1.462912797111e+03 
       8.534286597183e-02       1.415527733772e+03 
       8.825284187177e-02       1.387038167502e+03 
       9.124861974388e-02       1.369122671198e+03 
       9.433487170908e-02       1.352190466485e+03 
       9.751623496151e-02       1.326631663872e+03 
       1.007973261777e-01       1.284619668700e+03 
       1.041827524658e-01       1.222067379004e+03 
       1.076771198936e-01       1.139999011210e+03 
       1.112850404912e-01       1.044589305864e+03 
       1.150111385255e-01       9.455901490945e+02 
       1.188600567891e-01       8.536245174195e+02 
       1.228364636031e-01       7.773808974090e+02 
       1.269450612140e-01       7.216578700080e+02 
       1.311905962473e-01       6.865767582151e+02 
       1.355778728732e-01       6.677145771185e+02 
       1.401117693290e-01       6.569684724124e+02 
       1.447972584445e-01       6.444363089087e+02 
       1.496394328152e-01       6.215595286632e+02 
       1.546435352799e-01       5.846645885802e+02 
       1.598149953838e-01       5.367961649273e+02 
       1.651594725520e-01       4.861693245055e+02 
       1.706829067716e-01       4.419369395141e+02 
       1.763915776937e-01       4.099280988322e+02 
       1.822921732277e-01       3.904945925256e+02 
       1.883918689356e-01       3.788079398374e+02 
       1.946984198443e-01       3.672685369573e+02 
       2.012202667269e-01       3.495996179303e+02 
       2.079666594673e-01       3.247060437563e+02 
       2.149478008787e-01       2.970997503364e+02 
       2.221750153416e-01       2.731192026242e+02 
       2.296609479430e-01       2.562125334660e+02 
       2.374198015583e-01       2.449051126773e+02 
       2.454676216728e-01       2.344292495169e+02 
       2.538226419383e-01       2.208490156772e+02 
       2.625057078493e-01       2.044595830280e+02 
       2.715408020220e-01       1.889022101039e+02 
       2.809557031730e-01       1.769288184427e+02 
       2.907828232282e-01       1.676640375409e+02 
       3.010602849871e-01       1.581376045853e+02 
       3.118333294832e-01       1.471310225627e+02 
       3.231561826764e-01       1.363840482701e+02 
       3.350945738589e-01       1.275259368496e+02 
       3.477291977771e-01       1.196494574181e+02 
       3.611605750007e-01       1.112803051250e+02 
       3.755160383505e-01       1.029807482470e+02 
       3.909600485685e-01       9.566901708646e+01 
       4.077099015765e-01       8.860258598543e+01 
       4.260605112928e-01       8.146513698701e+01 
       4.464251674046e-01       7.480793546321e+01 
       4.694059105326e-01       6.820549126981e+01 
       4.959222289736e-01       6.170587592139e+01 
       5.274628218192e-01       5.520127171056e+01 
       5.666174334697e-01       4.859033605155e+01 
       6.182908914073e-01       4.168690098479e+01 
       6.925714951679e-01       3.430437514279e+01 
       8.100458135491e-01       2.643568428237e+01 
       9.970155666362e-01       1.901362085684e+01 
       1.253096155462e+00       1.349571766550e+01 
       1.577515367003e+00       9.728016299947e+00 
       1.985974037567e+00       7.099681316916e+00 
       2.500193182981e+00       5.210780387730e+00 
       3.147556732449e+00       3.817976801486e+00 
       3.962539155544e+00       2.772666288270e+00 
       4.988541238144e+00       1.982672656881e+00 
       6.280201332482e+00       1.388556988629e+00 
       7.906305048646e+00       9.489011034509e-01 
       9.953448339137e+00       6.315705584262e-01 
       1.253064904912e+01       4.093587886679e-01 
