# Matter power spectrum P(k) at redshift z=1
# for k=1.649e-07 to 10.4155 h/Mpc,
# number of wavenumbers equal to 140
#    1:k (h/Mpc)              2:P (Mpc/h)^3        
       1.649003697786e-07       7.409179913766e-01 
       2.075972659285e-07       9.288811299061e-01 
       2.613494734964e-07       1.164528548660e+00 
       3.290194935436e-07       1.459957249734e+00 
       4.142110013977e-07       1.830333117600e+00 
       5.214607555043e-07       2.294669461365e+00 
       6.564801963578e-07       2.876803065272e+00 
       8.264596015344e-07       3.606617851327e+00 
       1.040450994193e-06       4.521578969776e+00 
       1.309850196316e-06       5.668656068052e+00 
       1.649003697786e-06       7.106734462628e+00 
       2.075972659285e-06       8.909637981013e+00 
       2.613494734964e-06       1.116991863050e+01 
       3.290194935436e-06       1.400360758919e+01 
       4.142110013977e-06       1.755617132546e+01 
       5.214607555043e-06       2.200997842837e+01 
       6.564801963578e-06       2.759366010063e+01 
       8.264596015344e-06       3.459384414358e+01 
       1.040450994193e-05       4.336986341282e+01 
       1.309850196316e-05       5.437219102245e+01 
       1.649003697786e-05       6.816554320599e+01 
       2.075972659285e-05       8.545782490741e+01 
       2.613494734964e-05       1.071363823981e+02 
       3.290194935436e-05       1.343133809794e+02 
       4.142110013977e-05       1.683825521996e+02 
       5.214607555043e-05       2.110900550289e+02 
       6.564801963578e-05       2.646227558861e+02 
       8.264596015344e-05       3.317178036019e+02 
       1.040450994193e-04       4.157978404125e+02 
       1.309850196316e-04       5.211362963154e+02 
       1.649003697786e-04       6.530564740428e+02 
       2.075972659285e-04       8.181656838722e+02 
       2.613494734964e-04       1.024620210373e+03 
       3.290194935436e-04       1.282406868010e+03 
       4.142110013977e-04       1.603611883516e+03 
       5.214607555043e-04       2.002631103279e+03 
       6.564801963578e-04       2.496263914353e+03 
       8.264596015344e-04       3.103616225085e+03 
       1.040450994193e-03       3.845636049453e+03 
       1.309850196316e-03       4.743853359753e+03 
       1.649003697786e-03       5.817842499833e+03 
       2.075972659285e-03       7.081363912873e+03 
       2.613494734964e-03       8.536757046518e+03 
       3.290194935436e-03       1.016764481664e+04 
       4.142110013977e-03       1.192146421596e+04 
       5.214607555043e-03       1.372387156909e+04 
       6.564801963578e-03       1.543060849940e+04 
       8.264596015344e-03       1.683618607752e+04 
       1.040450994193e-02       1.766256076232e+04 
       1.309850196315e-02       1.757806407371e+04 
       1.649003688317e-02       1.628364636342e+04 
       2.075964822625e-02       1.372075975624e+04 
       2.612333655816e-02       1.037117629436e+04 
       3.249128259700e-02       7.418111201320e+03 
       3.796124447060e-02       5.971771831029e+03 
       4.191144401682e-02       5.411510874980e+03 
       4.515263545718e-02       5.148186490449e+03 
       4.803888923686e-02       4.997733657704e+03 
       5.072667313771e-02       4.884919662864e+03 
       5.329823253549e-02       4.770807011309e+03 
       5.580263905565e-02       4.633216019451e+03 
       5.827200652786e-02       4.460286806051e+03 
       6.072890115499e-02       4.247970760809e+03 
       6.319011817881e-02       3.998685649202e+03 
       6.566877341259e-02       3.720128573548e+03 
       6.817553924793e-02       3.423877318283e+03 
       7.071941403405e-02       3.123725565517e+03 
       7.330822169044e-02       2.833886077376e+03 
       7.594894764302e-02       2.567297280677e+03 
       7.864797130612e-02       2.334275627183e+03 
       8.141123082903e-02       2.141673951893e+03 
       8.424434210625e-02       1.992556776037e+03 
       8.715268605502e-02       1.886248165130e+03 
       9.014147334309e-02       1.818532407437e+03 
       9.321579275777e-02       1.781851438723e+03 
       9.638064750462e-02       1.765551273993e+03 
       9.964098249123e-02       1.756478297610e+03 
       1.030017048403e-01       1.740338035272e+03 
       1.064676993378e-01       1.704029363764e+03 
       1.100438401633e-01       1.638634812957e+03 
       1.137350000117e-01       1.542110702490e+03 
       1.175460575576e-01       1.420412635169e+03 
       1.214819041120e-01       1.286191656219e+03 
       1.255474502575e-01       1.155269475782e+03 
       1.297476332043e-01       1.042236384401e+03 
       1.340874255880e-01       9.568697656745e+02 
       1.385718464093e-01       9.023259971382e+02 
       1.432059748104e-01       8.748985024029e+02 
       1.479949673709e-01       8.647525922706e+02 
       1.529440796052e-01       8.578009016654e+02 
       1.580586923451e-01       8.395386080124e+02 
       1.633443436998e-01       8.005822453362e+02 
       1.688067673140e-01       7.412335341731e+02 
       1.744519376863e-01       6.715104912550e+02 
       1.802861233891e-01       6.058726955437e+02 
       1.863159491467e-01       5.560222644438e+02 
       1.925484678973e-01       5.260721175118e+02 
       1.989912442066e-01       5.115687818737e+02 
       2.056524507304e-01       5.017806939067e+02 
       2.125409798667e-01       4.850382875811e+02 
       2.196665733346e-01       4.557271115525e+02 
       2.270399732008e-01       4.179803845555e+02 
       2.346730989144e-01       3.819939140676e+02 
       2.425792562878e-01       3.559927114590e+02 
       2.507733861928e-01       3.407173461596e+02 
       2.592723632017e-01       3.297324088840e+02 
       2.680953577356e-01       3.149478475480e+02 
       2.772642798544e-01       2.937980971015e+02 
       2.868043291758e-01       2.711531747022e+02 
       2.967446843678e-01       2.533411505175e+02 
       3.071193784856e-01       2.413081688589e+02 
       3.179684251132e-01       2.303586831136e+02 
       3.293392879955e-01       2.164006928107e+02 
       3.412888288313e-01       2.010835485563e+02 
       3.538859328752e-01       1.884569231300e+02 
       3.672151150429e-01       1.784698782117e+02 
       3.813815770973e-01       1.678015412898e+02 
       3.965184683542e-01       1.561755789244e+02 
       4.127975918087e-01       1.460535123598e+02 
       4.304456805114e-01       1.368410842768e+02 
       4.497700318734e-01       1.269989587729e+02 
       4.712005765539e-01       1.178011422794e+02 
       4.953623364672e-01       1.088311701351e+02 
       5.232075411428e-01       9.974031341911e+01 
       5.562731956537e-01       9.070071067914e+01 
       5.972231193214e-01       8.137902109680e+01 
       6.510811703970e-01       7.151672911175e+01 
       7.281482291125e-01       6.077332355746e+01 
       8.495687377350e-01       4.894719043154e+01 
       1.043603091352e+00       3.712658313379e+01 
       1.311270632592e+00       2.764166924022e+01 
       1.650740053968e+00       2.065207479405e+01 
       2.078158393064e+00       1.541012779884e+01 
       2.616246410640e+00       1.140434592008e+01 
       3.293659089871e+00       8.318180299371e+00 
       4.146471126025e+00       5.948486803122e+00 
       5.220097869823e+00       4.154121962426e+00 
       6.571713860373e+00       2.825513460180e+00 
       8.273297577864e+00       1.869428828394e+00 
       1.041546456011e+01       1.203594997481e+00 
