# Matter power spectrum P(k) at redshift z=0
# for k=2.13409e-07 to 10.7071 h/Mpc,
# number of wavenumbers equal to 139
#    1:k (h/Mpc)              2:P (Mpc/h)^3        
       2.134094022924e-07       1.083037374486e+00 
       2.686665196617e-07       1.346025983922e+00 
       3.382311089004e-07       1.672874816223e+00 
       4.258077380540e-07       2.079090732789e+00 
       5.360601819748e-07       2.583946048891e+00 
       6.748597853390e-07       3.211392879262e+00 
       8.495981331613e-07       3.991199509604e+00 
       1.069580679650e-06       4.960362705836e+00 
       1.346522297575e-06       6.164862964830e+00 
       1.695171137965e-06       7.661845979734e+00 
       2.134094022924e-06       9.522333808426e+00 
       2.686665196617e-06       1.183459436288e+01 
       3.382311089004e-06       1.470832905621e+01 
       4.258077380540e-06       1.827987723950e+01 
       5.360601819748e-06       2.271868425528e+01 
       6.748597853390e-06       2.823533980279e+01 
       8.495981331613e-06       3.509156763575e+01 
       1.069580679650e-05       4.361263986789e+01 
       1.346522297575e-05       5.420280351876e+01 
       1.695171137965e-05       6.736444857900e+01 
       2.134094022924e-05       8.372192180321e+01 
       2.686665196617e-05       1.040511058794e+02 
       3.382311089004e-05       1.293161472634e+02 
       4.258077380540e-05       1.607150358213e+02 
       5.360601819748e-05       1.997361213921e+02 
       6.748597853390e-05       2.482280971121e+02 
       8.495981331613e-05       3.084864735322e+02 
       1.069580679650e-04       3.833600700479e+02 
       1.346522297575e-04       4.763814632585e+02 
       1.695171137965e-04       5.919254569081e+02 
       2.134094022924e-04       7.353991095544e+02 
       2.686665196617e-04       9.134650814787e+02 
       3.382311089004e-04       1.134296263324e+03 
       4.258077380540e-04       1.407853220392e+03 
       5.360601819748e-04       1.746167293852e+03 
       6.748597853390e-04       2.163602358823e+03 
       8.495981331613e-04       2.677051682662e+03 
       1.069580679650e-03       3.305973036097e+03 
       1.346522297575e-03       4.072049572643e+03 
       1.695171137965e-03       4.998209131253e+03 
       2.134094022924e-03       6.106763865968e+03 
       2.686665196617e-03       7.416212188128e+03 
       3.382311089004e-03       8.936376825778e+03 
       4.258077380540e-03       1.066173272355e+04 
       5.360601819748e-03       1.256224695064e+04 
       6.748597853390e-03       1.457222033190e+04 
       8.495981331613e-03       1.657790495371e+04 
       1.069580679650e-02       1.840512726664e+04 
       1.346522297575e-02       1.981228433444e+04 
       1.695171137952e-02       2.050187427288e+04 
       2.134093970207e-02       2.017943489990e+04 
       2.686635195122e-02       1.869936124182e+04 
       3.379034315993e-02       1.629788611916e+04 
       4.170379060308e-02       1.386390753617e+04 
       4.799680242418e-02       1.244004778721e+04 
       5.264365280337e-02       1.164511651232e+04 
       5.653714068790e-02       1.109169355931e+04 
       6.004296242502e-02       1.064230668159e+04 
       6.332893542463e-02       1.023686767337e+04 
       6.648586955029e-02       9.844722151257e+03 
       6.956908544360e-02       9.449675563476e+03 
       7.261535907089e-02       9.044222005660e+03 
       7.565085693240e-02       8.626838417878e+03 
       7.869525572583e-02       8.200381238076e+03 
       8.176405668868e-02       7.770858414333e+03 
       8.486996888620e-02       7.346296991308e+03 
       8.802377821697e-02       6.935622971520e+03 
       9.123491599224e-02       6.547564758795e+03 
       9.451184363533e-02       6.189637393911e+03 
       9.786232028371e-02       5.867274367501e+03 
       1.012935932221e-01       5.583166028384e+03 
       1.048125359099e-01       5.336848993516e+03 
       1.084257494643e-01       5.124582983529e+03 
       1.121396380592e-01       4.939561509351e+03 
       1.159604653312e-01       4.772516133792e+03 
       1.198943967303e-01       4.612768816918e+03 
       1.239475313567e-01       4.449725571433e+03 
       1.281259258982e-01       4.274669542640e+03 
       1.324356126743e-01       4.082526455507e+03 
       1.368826133814e-01       3.873124572395e+03 
       1.414729498626e-01       3.651464078100e+03 
       1.462126530503e-01       3.426722816267e+03 
       1.511077711102e-01       3.210113456579e+03 
       1.561643777467e-01       3.012112171791e+03 
       1.613885815797e-01       2.839800597217e+03 
       1.667865374780e-01       2.695019239077e+03 
       1.723644607135e-01       2.573812378298e+03 
       1.781286447897e-01       2.467406926248e+03 
       1.840854837890e-01       2.364714362374e+03 
       1.902415000812e-01       2.255906634304e+03 
       1.966033782382e-01       2.135954149582e+03 
       2.031780060169e-01       2.006544528504e+03 
       2.099725233076e-01       1.875183943923e+03 
       2.169943800068e-01       1.751643822637e+03 
       2.242514038773e-01       1.643415505232e+03 
       2.317518796144e-01       1.552376920735e+03 
       2.395046405619e-01       1.474222888624e+03 
       2.475191748385e-01       1.400963529221e+03 
       2.558057480706e-01       1.325395092309e+03 
       2.643755455089e-01       1.245133185151e+03 
       2.732408370829e-01       1.163549281838e+03 
       2.824151699747e-01       1.086818053426e+03 
       2.919135946529e-01       1.019233085105e+03 
       3.017529321060e-01       9.602922234031e+02 
       3.119520924163e-01       9.056287201129e+02 
       3.225324580434e-01       8.509203854447e+02 
       3.335183495699e-01       7.954246642125e+02 
       3.449375976916e-01       7.419089220301e+02 
       3.568222536333e-01       6.932105891044e+02 
       3.692094820540e-01       6.492042750475e+02 
       3.821426975751e-01       6.073890448196e+02 
       3.956730310214e-01       5.660967564052e+02 
       4.098612486458e-01       5.261704480099e+02 
       4.247803041339e-01       4.890717570092e+02 
       4.405187910952e-01       4.544983649571e+02 
       4.571857038725e-01       4.211339933949e+02 
       4.749171441272e-01       3.888508091194e+02 
       4.938859986702e-01       3.583178238467e+02 
       5.143162927323e-01       3.292388718409e+02 
       5.365051573053e-01       3.010431548998e+02 
       5.608576958701e-01       2.738988984783e+02 
       5.879447269594e-01       2.476197435355e+02 
       6.186033079099e-01       2.218826568053e+02 
       6.541223519200e-01       1.965546718655e+02 
       6.966098472794e-01       1.712552879634e+02 
       7.497781810101e-01       1.455877742677e+02 
       8.207552077432e-01       1.189980070930e+02 
       9.243331610604e-01       9.100509960818e+01 
       1.089937090183e+00       6.239244761194e+01 
       1.349252684678e+00       3.792580471820e+01 
       1.696982227732e+00       2.198984772496e+01 
       2.136349737574e+00       1.259950076364e+01 
       2.689504904748e+00       7.156504208071e+00 
       3.385886069707e+00       4.033099246267e+00 
       4.262578014594e+00       2.256763637604e+00 
       5.366267782327e+00       1.254650610278e+00 
       6.755730877664e+00       6.934192030475e-01 
       8.504961277134e+00       3.811732305817e-01 
       1.070711187811e+01       2.084936731242e-01 
