# Matter power spectrum P(k) at redshift z=1.5
# for k=1.72154e-07 to 10.8761 h/Mpc,
# number of wavenumbers equal to 140
#    1:k (h/Mpc)              2:P (Mpc/h)^3        
       1.721538087336e-07       5.400900417519e-01 
       2.167288045519e-07       6.773859262850e-01 
       2.728453995181e-07       8.495836941616e-01 
       3.434920069445e-07       1.065555726585e+00 
       4.324308162906e-07       1.336429845201e+00 
       5.443981434711e-07       1.676162665759e+00 
       6.853566569493e-07       2.102258702353e+00 
       8.628129115758e-07       2.636672273322e+00 
       1.086217100007e-06       3.306938678215e+00 
       1.367466309924e-06       4.147592925949e+00 
       1.721538087336e-06       5.201949104194e+00 
       2.167288045519e-06       6.524332064909e+00 
       2.728453995181e-06       8.182876389352e+00 
       3.434920069445e-06       1.026303679449e+01 
       4.324308162906e-06       1.287199077189e+01 
       5.443981434711e-06       1.614416012207e+01 
       6.853566569493e-06       2.024813552160e+01 
       8.628129115758e-06       2.539536021662e+01 
       1.086217100007e-05       3.185101883719e+01 
       1.367466309924e-05       3.994768965735e+01 
       1.721538087336e-05       5.010245814932e+01 
       2.167288045519e-05       6.283836270148e+01 
       2.728453995181e-05       7.881125571993e+01 
       3.434920069445e-05       9.884342094035e+01 
       4.324308162906e-05       1.239655935539e+02 
       5.443981434711e-05       1.554693783613e+02 
       6.853566569493e-05       1.949724317830e+02 
       8.628129115758e-05       2.444991046828e+02 
       1.086217100007e-04       3.065794043656e+02 
       1.367466309924e-04       3.843688501734e+02 
       1.721538087336e-04       4.817905448940e+02 
       2.167288045519e-04       6.036976363078e+02 
       2.728453995181e-04       7.560478496873e+02 
       3.434920069445e-04       9.460701895505e+02 
       4.324308162906e-04       1.182386565698e+03 
       5.443981434711e-04       1.475032015463e+03 
       6.853566569493e-04       1.835308818838e+03 
       8.628129115758e-04       2.275419539663e+03 
       1.086217100007e-03       2.807789576490e+03 
       1.367466309924e-03       3.443762619396e+03 
       1.721538087336e-03       4.191193369492e+03 
       2.167288045519e-03       5.051130586786e+03 
       2.728453995181e-03       6.013869480623e+03 
       3.434920069445e-03       7.054495082468e+03 
       4.324308162906e-03       8.128526591442e+03 
       5.443981434711e-03       9.169065678461e+03 
       6.853566569493e-03       1.008637242733e+04 
       8.628129115758e-03       1.077085053443e+04 
       1.086217100007e-02       1.110085379391e+04 
       1.367466309924e-02       1.095902068320e+04 
       1.721538085265e-02       1.026542338263e+04 
       2.167285502418e-02       9.037085819533e+03 
       2.727934300355e-02       7.461709376911e+03 
       3.410598609179e-02       5.937896253070e+03 
       4.049163452065e-02       4.975860443940e+03 
       4.506026610463e-02       4.489454756096e+03 
       4.872034740927e-02       4.171568993599e+03 
       5.193871749189e-02       3.919917386639e+03 
       5.491422775829e-02       3.697602547366e+03 
       5.774817667259e-02       3.488878426388e+03 
       6.049966886107e-02       3.286962049101e+03 
       6.320674502965e-02       3.089644932895e+03 
       6.589578803591e-02       2.897287057865e+03 
       6.858622345161e-02       2.711676680899e+03 
       7.129308365105e-02       2.535256598126e+03 
       7.402850506923e-02       2.370542716613e+03 
       7.680265125576e-02       2.219675736292e+03 
       7.962430756277e-02       2.084090531417e+03 
       8.250127840874e-02       1.964299466226e+03 
       8.544066072324e-02       1.859786688963e+03 
       8.844903686753e-02       1.769010413134e+03 
       9.153261350411e-02       1.689514131356e+03 
       9.469732316047e-02       1.618150261899e+03 
       9.794889940402e-02       1.551420338701e+03 
       1.012929329476e-01       1.485919412131e+03 
       1.047349137283e-01       1.418839431229e+03 
       1.082802625304e-01       1.348443234632e+03 
       1.119343547603e-01       1.274386838046e+03 
       1.157025383388e-01       1.197773734812e+03 
       1.195901472530e-01       1.120879338239e+03 
       1.236025120247e-01       1.046583123777e+03 
       1.277449681650e-01       9.776443424754e+02 
       1.320228635653e-01       9.160132131238e+02 
       1.364415656943e-01       8.623572541083e+02 
       1.410064694216e-01       8.159216826822e+02 
       1.457230062611e-01       7.747656246445e+02 
       1.505966558046e-01       7.363383711978e+02 
       1.556329601041e-01       6.982655200031e+02 
       1.608375417554e-01       6.591061598115e+02 
       1.662161264267e-01       6.187809133636e+02 
       1.717745705796e-01       5.784548907804e+02 
       1.775188951383e-01       5.399017314001e+02 
       1.834553258847e-01       5.046455155121e+02 
       1.895903414053e-01       4.732911701007e+02 
       1.959307294865e-01       4.453457463006e+02 
       2.024836529768e-01       4.195844451130e+02 
       2.092567263041e-01       3.947511977810e+02 
       2.162581040843e-01       3.702031508070e+02 
       2.234965835938e-01       3.461241898931e+02 
       2.309817233416e-01       3.232014985684e+02 
       2.387239805843e-01       3.020313369290e+02 
       2.467348714460e-01       2.826956299238e+02 
       2.550271583735e-01       2.647846449125e+02 
       2.636150710844e-01       2.477797178267e+02 
       2.725145690538e-01       2.314400651136e+02 
       2.817436561187e-01       2.158727641802e+02 
       2.913227612072e-01       2.012836008326e+02 
       3.012752038848e-01       1.877050095266e+02 
       3.116277699067e-01       1.749706494969e+02 
       3.224114310945e-01       1.629034800408e+02 
       3.336622568884e-01       1.514599027268e+02 
       3.454225838451e-01       1.406762061159e+02 
       3.577425373142e-01       1.305382398274e+02 
       3.706820416885e-01       1.209652005161e+02 
       3.843135205731e-01       1.118933504134e+02 
       3.987255907030e-01       1.033043500906e+02 
       4.140282194449e-01       9.517368573540e+01 
       4.303600926788e-01       8.745308081839e+01 
       4.478994173637e-01       8.010257698580e+01 
       4.668802375322e-01       7.309044616403e+01 
       4.876179369682e-01       6.637567393399e+01 
       5.105507228921e-01       5.991379346311e+01 
       5.363103349398e-01       5.365820454414e+01 
       5.658493964693e-01       4.755298325210e+01 
       6.006861497001e-01       4.153071857203e+01 
       6.434112834470e-01       3.550624916976e+01 
       6.988240434377e-01       2.937070073345e+01 
       7.766203544323e-01       2.300291915973e+01 
       8.970321490278e-01       1.641553573455e+01 
       1.091736348832e+00       1.030291350040e+01 
       1.369328151181e+00       5.972371840454e+00 
       1.723740853083e+00       3.404620178085e+00 
       2.170060356261e+00       1.926285057360e+00 
       2.731944126911e+00       1.082646324028e+00 
       3.439313884970e+00       6.048186018526e-01 
       4.329839648925e+00       3.360182732884e-01 
       5.450945163025e+00       1.857382000883e-01 
       6.862333384029e+00       1.021921949709e-01 
       8.639165881357e+00       5.598459395279e-02 
       1.087606546475e+01       3.054853092515e-02 
