# Matter power spectrum P(k) at redshift z=2.5
# for k=1.94355e-07 to 12.2777 h/Mpc,
# number of wavenumbers equal to 140
#    1:k (h/Mpc)              2:P (Mpc/h)^3        
       1.943549131321e-07       2.091207202774e-01 
       2.446783390491e-07       2.592191401806e-01 
       3.080317787445e-07       3.213194872546e-01 
       3.877890339016e-07       3.982970270872e-01 
       4.881974691938e-07       4.937158434243e-01 
       6.146041999417e-07       6.119938569635e-01 
       7.737408455020e-07       7.586073757950e-01 
       9.740820125456e-07       9.403446498850e-01 
       1.226296598765e-06       1.165620168135e+00 
       1.543815950582e-06       1.444864250454e+00 
       1.943549131321e-06       1.791005971424e+00 
       2.446783390491e-06       2.220071773214e+00 
       3.080317787445e-06       2.751927481903e+00 
       3.877890339016e-06       3.411198077061e+00 
       4.881974691938e-06       4.228407783068e+00 
       6.146041999417e-06       5.241393251889e+00 
       7.737408455020e-06       6.497055215897e+00 
       9.740820125456e-06       8.053529624025e+00 
       1.226296598765e-05       9.982878595450e+00 
       1.543815950582e-05       1.237442543866e+01 
       1.943549131321e-05       1.533888743340e+01 
       2.446783390491e-05       1.901349635039e+01 
       3.080317787445e-05       2.356834108844e+01 
       3.877890339016e-05       2.921422076910e+01 
       4.881974691938e-05       3.621236147400e+01 
       6.146041999417e-05       4.488642604659e+01 
       7.737408455020e-05       5.563733305283e+01 
       9.740820125456e-05       6.896149276334e+01 
       1.226296598765e-04       8.547315225933e+01 
       1.543815950582e-04       1.059315891930e+02 
       1.943549131321e-04       1.312738461826e+02 
       2.446783390491e-04       1.626534457840e+02 
       3.080317787445e-04       2.014848795498e+02 
       3.877890339016e-04       2.494923388527e+02 
       4.881974691938e-04       3.087588279735e+02 
       6.146041999417e-04       3.817684016203e+02 
       7.737408455020e-04       4.714306222251e+02 
       9.740820125456e-04       5.810743967989e+02 
       1.226296598765e-03       7.143971475447e+02 
       1.543815950582e-03       8.753378521393e+02 
       1.943549131321e-03       1.067784765112e+03 
       2.446783390491e-03       1.295006810863e+03 
       3.080317787445e-03       1.558845107496e+03 
       3.877890339016e-03       1.858563158480e+03 
       4.881974691938e-03       2.188244592639e+03 
       6.146041999417e-03       2.538258247869e+03 
       7.737408455020e-03       2.888146414802e+03 
       9.740820125456e-03       3.207035781338e+03 
       1.226296598765e-02       3.451386787242e+03 
       1.543815950544e-02       3.567002178781e+03 
       1.943549009381e-02       3.500434629431e+03 
       2.446728942073e-02       3.227389951959e+03 
       3.075438972276e-02       2.797829454656e+03 
       3.769904470178e-02       2.387210800333e+03 
       4.299232388524e-02       2.159450558104e+03 
       4.697357339938e-02       2.030295183702e+03 
       5.035179455613e-02       1.939926645718e+03 
       5.341433404463e-02       1.866573852350e+03 
       5.629639657718e-02       1.800303426201e+03 
       5.907250649085e-02       1.735855566586e+03 
       6.178867157019e-02       1.670344901133e+03 
       6.447578824811e-02       1.602361918959e+03 
       6.715601873566e-02       1.531551971123e+03 
       6.984614139546e-02       1.458363794369e+03 
       7.255945039632e-02       1.383851646671e+03 
       7.530689953600e-02       1.309484502897e+03 
       7.809782512093e-02       1.236948004338e+03 
       8.094042126864e-02       1.167943458689e+03 
       8.384206280645e-02       1.103994225533e+03 
       8.680953063870e-02       1.046274809098e+03 
       8.984917256284e-02       9.954745213621e+02 
       9.296702008280e-02       9.517050088535e+02 
       9.616887443518e-02       9.144580900684e+02 
       9.946037057672e-02       8.826214242042e+02 
       1.028470250852e-01       8.545642166732e+02 
       1.063342721348e-01       8.283059054280e+02 
       1.099274905411e-01       8.017756825624e+02 
       1.136320240981e-01       7.731472019384e+02 
       1.174531969202e-01       7.411977185225e+02 
       1.213963251584e-01       7.056022731746e+02 
       1.254667262347e-01       6.670601245564e+02 
       1.296697265905e-01       6.271778843551e+02 
       1.340106688482e-01       5.881056412553e+02 
       1.384949192257e-01       5.520096812672e+02 
       1.431278760037e-01       5.205246433912e+02 
       1.479149798243e-01       4.943311928490e+02 
       1.528617265836e-01       4.729639269077e+02 
       1.579736836683e-01       4.549080000497e+02 
       1.632565102832e-01       4.380046022736e+02 
       1.687159826131e-01       4.201205413298e+02 
       1.743580245656e-01       3.999072698470e+02 
       1.801887448593e-01       3.773361036874e+02 
       1.862144812557e-01       3.536988473701e+02 
       1.924418527913e-01       3.310013787382e+02 
       1.988778209642e-01       3.110240596527e+02 
       2.055297609732e-01       2.945119927549e+02 
       2.124055443178e-01       2.808741188189e+02 
       2.195136343592e-01       2.685322483642e+02 
       2.268631968405e-01       2.557933368626e+02 
       2.344642279021e-01       2.418183156626e+02 
       2.423277028369e-01       2.270710178648e+02 
       2.504657497758e-01       2.128816499417e+02 
       2.588918537353e-01       2.004239953399e+02 
       2.676210981147e-01       1.898794690007e+02 
       2.766704529342e-01       1.804006951671e+02 
       2.860591220712e-01       1.708843221590e+02 
       2.958089657954e-01       1.609185902152e+02 
       3.059450204603e-01       1.510384643255e+02 
       3.164961449804e-01       1.420381373274e+02 
       3.274958347242e-01       1.340940834940e+02 
       3.389832593065e-01       1.266568411392e+02 
       3.510046039920e-01       1.191868369436e+02 
       3.636148291182e-01       1.117877085569e+02 
       3.768800148547e-01       1.049026711043e+02 
       3.908805411599e-01       9.857878549270e+01 
       4.057154848410e-01       9.245620900235e+01 
       4.215088328618e-01       8.642075373679e+01 
       4.384184797631e-01       8.069121398830e+01 
       4.566496252591e-01       7.525491071310e+01 
       4.764753736970e-01       6.992082865714e+01 
       4.982696054754e-01       6.474049060780e+01 
       5.225617584553e-01       5.970417383594e+01 
       5.501329058762e-01       5.470800036364e+01 
       5.821947193252e-01       4.974169489851e+01 
       6.207471172216e-01       4.470263779761e+01 
       6.693514602747e-01       3.949340636043e+01 
       7.349281815881e-01       3.395843271575e+01 
       8.319257811614e-01       2.792985098763e+01 
       9.881753837903e-01       2.149701006805e+01 
       1.228482244993e+00       1.568082558111e+01 
       1.545678492638e+00       1.142445973719e+01 
       1.945883166979e+00       8.412382391360e+00 
       2.449721743735e+00       6.222325197951e+00 
       3.084016955007e+00       4.588540467410e+00 
       3.882547315062e+00       3.349041068880e+00 
       4.887837477425e+00       2.403826361869e+00 
       6.153422809050e+00       1.688204802801e+00 
       7.746700343827e+00       1.156122933613e+00 
       9.752517920398e+00       7.706605327467e-01 
       1.227769263897e+01       4.998574980923e-01 
