# Matter power spectrum P(k) at redshift z=1
# for k=1.84536e-07 to 11.6557 h/Mpc,
# number of wavenumbers equal to 140
#    1:k (h/Mpc)              2:P (Mpc/h)^3        
       1.845363078039e-07       6.588034856145e-01 
       2.323174472930e-07       8.177600459270e-01 
       2.924703380003e-07       1.015069754772e+00 
       3.681983407047e-07       1.259986485955e+00 
       4.635342476935e-07       1.563996893962e+00 
       5.835550436583e-07       1.941359140603e+00 
       7.346522736421e-07       2.409771605338e+00 
       9.248724161204e-07       2.991202942113e+00 
       1.164345387321e-06       3.712922411489e+00 
       1.465823996204e-06       4.608778809189e+00 
       1.845363078039e-06       5.720787970443e+00 
       2.323174472930e-06       7.101103298461e+00 
       2.924703380003e-06       8.814461724235e+00 
       3.681983407047e-06       1.094121978801e+01 
       4.635342476935e-06       1.358112219349e+01 
       5.835550436583e-06       1.685797949018e+01 
       7.346522736421e-06       2.092547409342e+01 
       9.248724161204e-06       2.597436659388e+01 
       1.164345387321e-05       3.224143967132e+01 
       1.465823996204e-05       4.002059772393e+01 
       1.845363078039e-05       4.967664018150e+01 
       2.323174472930e-05       6.166234928794e+01 
       2.924703380003e-05       7.653968363026e+01 
       3.681983407047e-05       9.500605140881e+01 
       4.635342476935e-05       1.179268565033e+02 
       5.835550436583e-05       1.463757669178e+02 
       7.346522736421e-05       1.816844438051e+02 
       9.248724161204e-05       2.255037701272e+02 
       1.164345387321e-04       2.798788812609e+02 
       1.465823996204e-04       3.473404202127e+02 
       1.845363078039e-04       4.310142123803e+02 
       2.323174472930e-04       5.347506171025e+02 
       2.924703380003e-04       6.632726034646e+02 
       3.681983407047e-04       8.223374436433e+02 
       4.635342476935e-04       1.018900497879e+03 
       5.835550436583e-04       1.261261907816e+03 
       7.346522736421e-04       1.559170426896e+03 
       9.248724161204e-04       1.923848589531e+03 
       1.164345387321e-03       2.367857601436e+03 
       1.465823996204e-03       2.904593843575e+03 
       1.845363078039e-03       3.547217879078e+03 
       2.323174472930e-03       4.306836661027e+03 
       2.924703380003e-03       5.189698820478e+03 
       3.681983407047e-03       6.193240302279e+03 
       4.635342476935e-03       7.292837037287e+03 
       5.835550436583e-03       8.460779179100e+03 
       7.346522736421e-03       9.621310966291e+03 
       9.248724161204e-03       1.066220517241e+04 
       1.164345387321e-02       1.142188953122e+04 
       1.465823996195e-02       1.169479569094e+04 
       1.845363035819e-02       1.127436177214e+04 
       2.323149963871e-02       1.006777209573e+04 
       2.921982877803e-02       8.280864560334e+03 
       3.608059490324e-02       6.596823775854e+03 
       4.155725255429e-02       5.707833373307e+03 
       4.559562762772e-02       5.275544621801e+03 
       4.897568326831e-02       5.015147773197e+03 
       5.201746506253e-02       4.828493257405e+03 
       5.486754283415e-02       4.672197550028e+03 
       5.760510831425e-02       4.523040871528e+03 
       6.027835171637e-02       4.367572055038e+03 
       6.291928228254e-02       4.198331880766e+03 
       6.555065986030e-02       4.012246698369e+03 
       6.818959001011e-02       3.809768209318e+03 
       7.084954213506e-02       3.594213377195e+03 
       7.354155499585e-02       3.371081956316e+03 
       7.627499366680e-02       3.147281912541e+03 
       7.905804460386e-02       2.930280604183e+03 
       8.189805049547e-02       2.727250227619e+03 
       8.480174312555e-02       2.544295009612e+03 
       8.777540904834e-02       2.385834541880e+03 
       9.082500964948e-02       2.254181528507e+03 
       9.395626940781e-02       2.149310741375e+03 
       9.717474146512e-02       2.068794894452e+03 
       1.004858566759e-01       2.007898939988e+03 
       1.038949604343e-01       1.959879648322e+03 
       1.074073403580e-01       1.916592651525e+03 
       1.110282471032e-01       1.869509618439e+03 
       1.147629100545e-01       1.811138567622e+03 
       1.186165492733e-01       1.736623725835e+03 
       1.225943848573e-01       1.645070476492e+03 
       1.267016447040e-01       1.540047108406e+03 
       1.309435715741e-01       1.428895640563e+03 
       1.353254302849e-01       1.320917532002e+03 
       1.398525158246e-01       1.224975416891e+03 
       1.445301631545e-01       1.147267810404e+03 
       1.493637594481e-01       1.089859752338e+03 
       1.543587595075e-01       1.050187327070e+03 
       1.595207050889e-01       1.021566364894e+03 
       1.648552488679e-01       9.948179862590e+02 
       1.703681837763e-01       9.610607221076e+02 
       1.760654784586e-01       9.150571617910e+02 
       1.819533196237e-01       8.575637393207e+02 
       1.880381621242e-01       7.950451407898e+02 
       1.943267876831e-01       7.365340747485e+02 
       2.008263733213e-01       6.893204802140e+02 
       2.075445707359e-01       6.557437364480e+02 
       2.144895981535e-01       6.323799699944e+02 
       2.216703465539e-01       6.118310644453e+02 
       2.290965026688e-01       5.866893017866e+02 
       2.367786918264e-01       5.539744468337e+02 
       2.447286446027e-01       5.169235520544e+02 
       2.529593924143e-01       4.822865404174e+02 
       2.614854987434e-01       4.551641817275e+02 
       2.703233347583e-01       4.354694360396e+02 
       2.794914108845e-01       4.184295969842e+02 
       2.890107796677e-01       3.987624836280e+02 
       2.989055304763e-01       3.753672861525e+02 
       3.092034038498e-01       3.519211255561e+02 
       3.199365635552e-01       3.325068132726e+02 
       3.311425791551e-01       3.171857401985e+02 
       3.428656934311e-01       3.024094084935e+02 
       3.551584810958e-01       2.857142488277e+02 
       3.680840539991e-01       2.687252520720e+02 
       3.817190438612e-01       2.541216716195e+02 
       3.961577144109e-01       2.413351627851e+02 
       4.115177527572e-01       2.279957881280e+02 
       4.279486242079e-01       2.143633772968e+02 
       4.456439594267e-01       2.021077050088e+02 
       4.648605057297e-01       1.903732846934e+02 
       4.859481939008e-01       1.782900975114e+02 
       5.093999067768e-01       1.668364861957e+02 
       5.359380701446e-01       1.553731617774e+02 
       5.666744318905e-01       1.438429319030e+02 
       6.034259099909e-01       1.320756789598e+02 
       6.493894660070e-01       1.197907925347e+02 
       7.106973836218e-01       1.065060550751e+02 
       8.000686059090e-01       9.163468250893e+01 
       9.428588398942e-01       7.482476895867e+01 
       1.166743431302e+00       5.786850668862e+01 
       1.467379533242e+00       4.391582412836e+01 
       1.847299134115e+00       3.305090644315e+01 
       2.325611759304e+00       2.452093016444e+01 
       2.927771741731e+00       1.782986524473e+01 
       3.685846245598e+00       1.264942450723e+01 
       4.640205502550e+00       8.728489769736e+00 
       5.841672623107e+00       5.848814666987e+00 
       7.354230112611e+00       3.807996258776e+00 
       9.258427172948e+00       2.415439066424e+00 
       1.165566924127e+01       1.498458864637e+00 
