# Matter power spectrum P(k) at redshift z=0
# for k=2.31004e-07 to 11.594 h/Mpc,
# number of wavenumbers equal to 139
#    1:k (h/Mpc)              2:P (Mpc/h)^3        
       2.310036881953e-07       6.524910940990e-01 
       2.908164132872e-07       8.172305405228e-01 
       3.661161728541e-07       1.023563022174e+00 
       4.609129536748e-07       1.281989852446e+00 
       5.802550300064e-07       1.605663691796e+00 
       7.304978025964e-07       2.011057953527e+00 
       9.196422469484e-07       2.518805219317e+00 
       1.157760994443e-06       3.154747335424e+00 
       1.457534736688e-06       3.951250633599e+00 
       1.834927518589e-06       4.948853214474e+00 
       2.310036881953e-06       6.198328128510e+00 
       2.908164132872e-06       7.763267456309e+00 
       3.661161728541e-06       9.723318796481e+00 
       4.609129536748e-06       1.217823886299e+01 
       5.802550300064e-06       1.525297046194e+01 
       7.304978025964e-06       1.910400117039e+01 
       9.196422469484e-06       2.392732719421e+01 
       1.157760994443e-05       2.996842743602e+01 
       1.457534736688e-05       3.753475482847e+01 
       1.834927518589e-05       4.701137953915e+01 
       2.310036881953e-05       5.888057793439e+01 
       2.908164132872e-05       7.374635978948e+01 
       3.661161728541e-05       9.236517312835e+01 
       4.609129536749e-05       1.156843317335e+02 
       5.802550300064e-05       1.448900860901e+02 
       7.304978025964e-05       1.814677151154e+02 
       9.196422469484e-05       2.272765607149e+02 
       1.157760994443e-04       2.846435562078e+02 
       1.457534736688e-04       3.564794865790e+02 
       1.834927518589e-04       4.464228892579e+02 
       2.310036881953e-04       5.590170034776e+02 
       2.908164132872e-04       6.999252237205e+02 
       3.661161728541e-04       8.761896905681e+02 
       4.609129536749e-04       1.096535507619e+03 
       5.802550300064e-04       1.371719384888e+03 
       7.304978025964e-04       1.714916093458e+03 
       9.196422469484e-04       2.142125412516e+03 
       1.157760994443e-03       2.672550983584e+03 
       1.457534736688e-03       3.328835081104e+03 
       1.834927518589e-03       4.136977631670e+03 
       2.310036881953e-03       5.125719754690e+03 
       2.908164132872e-03       6.324993668510e+03 
       3.661161728541e-03       7.763037264422e+03 
       4.609129536749e-03       9.461396800143e+03 
       5.802550300064e-03       1.142704723216e+04 
       7.304978025964e-03       1.364070163880e+04 
       9.196422469484e-03       1.604074621835e+04 
       1.157760994443e-02       1.850271409715e+04 
       1.457534736688e-02       2.081812237426e+04 
       1.834927518258e-02       2.268535671704e+04 
       2.310036230626e-02       2.374376043084e+04 
       2.907968624481e-02       2.370039745116e+04 
       3.648524127523e-02       2.258390948397e+04 
       4.408026293691e-02       2.114618182836e+04 
       4.959839845822e-02       2.018622033246e+04 
       5.388554672251e-02       1.951430855521e+04 
       5.759333531533e-02       1.896871456088e+04 
       6.098975360673e-02       1.847962877431e+04 
       6.420615573717e-02       1.801136431007e+04 
       6.731710592049e-02       1.754365006175e+04 
       7.036963315105e-02       1.706491598569e+04 
       7.339584412849e-02       1.656948057948e+04 
       7.641907735528e-02       1.605616011875e+04 
       7.945719919448e-02       1.552739463568e+04 
       8.252450105256e-02       1.498851031972e+04 
       8.563285554014e-02       1.444695259376e+04 
       8.879245434080e-02       1.391142786616e+04 
       9.201229729805e-02       1.339095557601e+04 
       9.530052690243e-02       1.289387258040e+04 
       9.866466303300e-02       1.242686020849e+04 
       1.021117712108e-01       1.199407964434e+04 
       1.056485852441e-01       1.159651195597e+04 
       1.092815977860e-01       1.123160319765e+04 
       1.130171278121e-01       1.089331679594e+04 
       1.168613711854e-01       1.057268250008e+04 
       1.208204386462e-01       1.025889279268e+04 
       1.249003843733e-01       9.940913163536e+03 
       1.291072274670e-01       9.609434360390e+03 
       1.334469681842e-01       9.258829457525e+03 
       1.379256003988e-01       8.888640456634e+03 
       1.425491215352e-01       8.504096217630e+03 
       1.473235410664e-01       8.115318002325e+03 
       1.522548885728e-01       7.735199148066e+03 
       1.573492222968e-01       7.376354777366e+03 
       1.626126390879e-01       7.047875369832e+03 
       1.680512866115e-01       6.752766479685e+03 
       1.736713786778e-01       6.486883657704e+03 
       1.794792145357e-01       6.239901460258e+03 
       1.854812029715e-01       5.998380429611e+03 
       1.916838920518e-01       5.750284185228e+03 
       1.980940053547e-01       5.489475609725e+03 
       2.047184855592e-01       5.218245929768e+03 
       2.115645463034e-01       4.946389638706e+03 
       2.186397333002e-01       4.686845683781e+03 
       2.259519958169e-01       4.449741367885e+03 
       2.335097698056e-01       4.237676733318e+03 
       2.413220742244e-01       4.044674504953e+03 
       2.493986224470e-01       3.859588870805e+03 
       2.577499511365e-01       3.672470435618e+03 
       2.663875696075e-01       3.480322396507e+03 
       2.753241335553e-01       3.288419518445e+03 
       2.845736481633e-01       3.106007215186e+03 
       2.941517070985e-01       2.939344700617e+03 
       3.040757758947e-01       2.787279953604e+03 
       3.143655308803e-01       2.642783395901e+03 
       3.250432683994e-01       2.499212983812e+03 
       3.361344039696e-01       2.355864320738e+03 
       3.476680877812e-01       2.217582578916e+03 
       3.596779724214e-01       2.088918282413e+03 
       3.722031821768e-01       1.969172509959e+03 
       3.852895527529e-01       1.853791469731e+03 
       3.989912389192e-01       1.740149267582e+03 
       4.133728306129e-01       1.630160233593e+03 
       4.285121839720e-01       1.526375625296e+03 
       4.445042772097e-01       1.427755635051e+03 
       4.614665677479e-01       1.331723528882e+03 
       4.795466028314e-01       1.238380591400e+03 
       4.989331076020e-01       1.148992871294e+03 
       5.198726111730e-01       1.062543410990e+03 
       5.426952165138e-01       9.779158323397e+02 
       5.678561097152e-01       8.954889983732e+02 
       5.960055017335e-01       8.144499447470e+02 
       6.281128965685e-01       7.340250688118e+02 
       6.657021224901e-01       6.534724480169e+02 
       7.113293336322e-01       5.714744662262e+02 
       7.696354523971e-01       4.863379180621e+02 
       8.498204630693e-01       3.958681721989e+02 
       9.711827290294e-01       2.985724039754e+02 
       1.167997348940e+00       2.004420443881e+02 
       1.459925589337e+00       1.223171009996e+02 
       1.837520409584e+00       7.258879895454e+01 
       2.313297637519e+00       4.256628378223e+01 
       2.912269175988e+00       2.470613799981e+01 
       3.666329671636e+00       1.420813749476e+01 
       4.615635591637e+00       8.103183596291e+00 
       5.810740937894e+00       4.586753813714e+00 
       7.315289428067e+00       2.578631113904e+00 
       9.209403755623e+00       1.440698479330e+00 
       1.159395241543e+01       8.003697579751e-01 
