# Matter power spectrum P(k) at redshift z=2.5
# for k=1.62184e-07 to 10.2435 h/Mpc,
# number of wavenumbers equal to 140
#    1:k (h/Mpc)              2:P (Mpc/h)^3        
       1.621835002823e-07       3.829054891265e-01 
       2.041769298792e-07       4.768717455758e-01 
       2.570435255270e-07       5.938976275158e-01 
       3.235986262231e-07       7.396420418279e-01 
       4.073865337739e-07       9.211526088632e-01 
       5.128692597907e-07       1.147206456748e+00 
       6.456641440786e-07       1.428734647238e+00 
       8.128429984649e-07       1.779350755615e+00 
       1.023308706566e-06       2.216009163688e+00 
       1.288269334807e-06       2.759824896181e+00 
       1.621835002823e-06       3.437094637126e+00 
       2.041769298792e-06       4.280568291280e+00 
       2.570435255270e-06       5.331032558758e+00 
       3.235986262231e-06       6.639283048775e+00 
       4.073865337739e-06       8.268580235742e+00 
       5.128692597907e-06       1.029770783879e+01 
       6.456641440786e-06       1.282478123433e+01 
       8.128429984649e-06       1.597198942272e+01 
       1.023308706566e-05       1.989149869729e+01 
       1.288269334807e-05       2.477280107568e+01 
       1.621835002823e-05       3.085185822657e+01 
       2.041769298792e-05       3.842247381317e+01 
       2.570435255270e-05       4.785042605598e+01 
       3.235986262231e-05       5.959100810361e+01 
       4.073865337739e-05       7.421075396330e+01 
       5.128692597907e-05       9.241426180080e+01 
       6.456641440786e-05       1.150771393215e+02 
       8.128429984649e-05       1.432861305681e+02 
       1.023308706566e-04       1.783873238308e+02 
       1.288269334807e-04       2.220427569072e+02 
       1.621835002823e-04       2.762943002069e+02 
       2.041769298792e-04       3.436306614223e+02 
       2.570435255270e-04       4.270475455697e+02 
       3.235986262231e-04       5.300809984036e+02 
       4.073865337739e-04       6.567792289477e+02 
       5.128692597907e-04       8.115626495437e+02 
       6.456641440786e-04       9.989201153644e+02 
       8.128429984649e-04       1.222925820316e+03 
       1.023308706566e-03       1.486622240614e+03 
       1.288269334807e-03       1.791235660303e+03 
       1.621835002823e-03       2.134849776299e+03 
       2.041769298792e-03       2.510459326654e+03 
       2.570435255270e-03       2.904559342401e+03 
       3.235986262231e-03       3.296369238637e+03 
       4.073865337739e-03       3.657436636742e+03 
       5.128692597907e-03       3.952989565102e+03 
       6.456641440786e-03       4.144513269770e+03 
       8.128429984649e-03       4.193129380711e+03 
       1.023308706566e-02       4.063413461403e+03 
       1.288269334807e-02       3.728730082840e+03 
       1.621835002820e-02       3.182024690818e+03 
       2.041769280649e-02       2.458076883651e+03 
       2.570421823635e-02       1.664038972829e+03 
       3.234168773561e-02       9.811858519896e+02 
       4.014604802133e-02       5.833556173553e+02 
       4.669182874423e-02       4.613745849935e+02 
       5.144522448777e-02       4.351632440225e+02 
       5.537052443982e-02       4.308724101598e+02 
       5.887782752781e-02       4.293953516744e+02 
       6.215037109750e-02       4.236350177056e+02 
       6.528531374111e-02       4.106371543767e+02 
       6.834098688040e-02       3.896521005747e+02 
       7.135574309889e-02       3.614184234062e+02 
       7.435663250472e-02       3.277132100165e+02 
       7.736384915498e-02       2.909356560615e+02 
       8.039320400665e-02       2.536878789112e+02 
       8.345759126288e-02       2.183878269808e+02 
       8.656790362491e-02       1.869693585220e+02 
       8.973362796140e-02       1.607144079265e+02 
       9.296324657347e-02       1.402305582958e+02 
       9.626451531140e-02       1.255449278646e+02 
       9.964466090613e-02       1.162506425939e+02 
       1.031105236606e-01       1.116319689318e+02 
       1.066686621739e-01       1.107198873321e+02 
       1.103254310507e-01       1.122851512535e+02 
       1.140870389900e-01       1.148356257997e+02 
       1.179595923855e-01       1.167120234510e+02 
       1.219491280983e-01       1.163409036372e+02 
       1.260616380977e-01       1.126091688386e+02 
       1.303030880221e-01       1.052170483262e+02 
       1.346794312850e-01       9.482160066889e+01 
       1.391966200677e-01       8.285325095201e+01 
       1.438606143510e-01       7.105471171879e+01 
       1.486773900193e-01       6.095008921878e+01 
       1.536529469920e-01       5.348054548717e+01 
       1.587933182888e-01       4.890750595025e+01 
       1.641045809058e-01       4.689842478015e+01 
       1.695928693592e-01       4.664842109642e+01 
       1.752643927426e-01       4.700947360367e+01 
       1.811254561322e-01       4.673898065299e+01 
       1.871824871740e-01       4.492323602124e+01 
       1.934420686863e-01       4.138753569901e+01 
       1.999109781266e-01       3.676858068865e+01 
       2.065962348039e-01       3.213548131168e+01 
       2.135051557731e-01       2.842134869473e+01 
       2.206454214448e-01       2.604106109329e+01 
       2.280251520895e-01       2.482717530603e+01 
       2.356529966270e-01       2.418538935145e+01 
       2.435382353912e-01       2.339275071145e+01 
       2.516908989699e-01       2.198502111464e+01 
       2.601219057752e-01       2.001628632461e+01 
       2.688432217333e-01       1.794895893957e+01 
       2.778680464618e-01       1.626051396266e+01 
       2.872110315919e-01       1.511696316940e+01 
       2.968885386011e-01       1.432752606300e+01 
       3.069189458015e-01       1.354731728937e+01 
       3.173230171838e-01       1.256958233519e+01 
       3.281243499653e-01       1.147047667324e+01 
       3.393499233810e-01       1.047114379857e+01 
       3.510307791721e-01       9.687809777789e+00 
       3.632028753951e-01       9.042233209345e+00 
       3.759081711862e-01       8.391325477269e+00 
       3.891960234662e-01       7.700324743124e+00 
       4.031250112562e-01       7.048408767185e+00 
       4.177653558555e-01       6.487947532536e+00 
       4.332021866300e-01       5.978557080010e+00 
       4.495400315919e-01       5.473276794449e+00 
       4.669091231778e-01       4.989174035986e+00 
       4.854744649317e-01       4.549501959624e+00 
       5.054492230885e-01       4.135474618568e+00 
       5.271151250397e-01       3.735885675926e+00 
       5.508546579035e-01       3.360614683729e+00 
       5.772040491795e-01       3.002788644593e+00 
       6.069448016113e-01       2.658202530791e+00 
       6.412712034885e-01       2.325794232383e+00 
       6.821182905857e-01       2.000359437485e+00 
       7.328552745719e-01       1.677761151426e+00 
       7.998696980495e-01       1.352551166541e+00 
       8.963090385854e-01       1.020303671190e+00 
       1.048961338625e+00       6.890950537329e-01 
       1.291667506634e+00       4.079609541588e-01 
       1.623531290867e+00       2.279948798382e-01 
       2.043856765625e+00       1.261886401337e-01 
       2.573063045763e+00       6.946922861346e-02 
       3.239294454371e+00       3.805911656517e-02 
       4.078030104891e+00       2.075791049476e-02 
       5.133935729109e+00       1.127486394980e-02 
       6.463242151893e+00       6.100552225825e-03 
       8.136739787598e+00       3.289014451188e-03 
       1.024354848776e+01       1.767217600952e-03 
