# Matter power spectrum P(k) at redshift z=0.5
# for k=1.85536e-07 to 11.7186 h/Mpc,
# number of wavenumbers equal to 140
#    1:k (h/Mpc)              2:P (Mpc/h)^3        
       1.855364609136e-07       1.594911212929e+00 
       2.335765654584e-07       1.977818847085e+00 
       2.940554738552e-07       2.452655269313e+00 
       3.701939085135e-07       3.041490819931e+00 
       4.660465187191e-07       3.771694504088e+00 
       5.867178054937e-07       4.677206098837e+00 
       7.386339548881e-07       5.800113667582e+00 
       9.298850558227e-07       7.192609803535e+00 
       1.170655926823e-06       8.919417526199e+00 
       1.473768494745e-06       1.106079858105e+01 
       1.855364609136e-06       1.371628396118e+01 
       2.335765654584e-06       1.700930002401e+01 
       2.940554738552e-06       2.109290519622e+01 
       3.701939085135e-06       2.615690383737e+01 
       4.660465187191e-06       3.243666778722e+01 
       5.867178054937e-06       4.022407536760e+01 
       7.386339548881e-06       4.988107577620e+01 
       9.298850558227e-06       6.185650836344e+01 
       1.170655926823e-05       7.670695662835e+01 
       1.473768494745e-05       9.512260239805e+01 
       1.855364609136e-05       1.179592744602e+02 
       2.335765654584e-05       1.462781666009e+02 
       2.940554738552e-05       1.813950423427e+02 
       3.701939085135e-05       2.249411569967e+02 
       4.660465187191e-05       2.789386179552e+02 
       5.867178054937e-05       3.458934694585e+02 
       7.386339548881e-05       4.289104053190e+02 
       9.298850558227e-05       5.318336190521e+02 
       1.170655926823e-04       6.594187478931e+02 
       1.473768494745e-04       8.175408585674e+02 
       1.855364609136e-04       1.013442403590e+03 
       2.335765654584e-04       1.256022117476e+03 
       2.940554738552e-04       1.556159606229e+03 
       3.701939085135e-04       1.927059649495e+03 
       4.660465187191e-04       2.384585223273e+03 
       5.867178054937e-04       2.947532498936e+03 
       7.386339548881e-04       3.637786295289e+03 
       9.298850558227e-04       4.480251039874e+03 
       1.170655926823e-03       5.502295477395e+03 
       1.473768494745e-03       6.732236460836e+03 
       1.855364609136e-03       8.196477187061e+03 
       2.335765654585e-03       9.914951135808e+03 
       2.940554738552e-03       1.189435528229e+04 
       3.701939085135e-03       1.411904667148e+04 
       4.660465187191e-03       1.650281441130e+04 
       5.867178054937e-03       1.900057098563e+04 
       7.386339548881e-03       2.141939336892e+04 
       9.298850558227e-03       2.350663755924e+04 
       1.170655926823e-02       2.491671715117e+04 
       1.473768494738e-02       2.523209752529e+04 
       1.855364577552e-02       2.406204402139e+04 
       2.335745866024e-02       2.128063396484e+04 
       2.938217323839e-02       1.738315292591e+04 
       3.634636425234e-02       1.378737129846e+04 
       4.198957637619e-02       1.189838507124e+04 
       4.612916520727e-02       1.099112229382e+04 
       4.957959627415e-02       1.044114435631e+04 
       5.267786552624e-02       1.003865642276e+04 
       5.557710616077e-02       9.693629801875e+03 
       5.835957171777e-02       9.359508770501e+03 
       6.107510491657e-02       9.010629850598e+03 
       6.375670706081e-02       8.633994038369e+03 
       6.642778372381e-02       8.225654948197e+03 
       6.910588868209e-02       7.788673698465e+03 
       7.180481947674e-02       7.331509890580e+03 
       7.453586628682e-02       6.866418603725e+03 
       7.730859464006e-02       6.407740432399e+03 
       8.013135653671e-02       5.970145525223e+03 
       8.301163571967e-02       5.566974075752e+03 
       8.595628753093e-02       5.208832384699e+03 
       8.897170941560e-02       4.902557738356e+03 
       9.206396439836e-02       4.650587632796e+03 
       9.523887180894e-02       4.450700085024e+03 
       9.850207465769e-02       4.296077559786e+03 
       1.018590900250e-01       4.175705101001e+03 
       1.053153468907e-01       4.075222153457e+03 
       1.088762145706e-01       3.978417294903e+03 
       1.125470240974e-01       3.869481512085e+03 
       1.163330843331e-01       3.735854829940e+03 
       1.202396942314e-01       3.571075860888e+03 
       1.242721524263e-01       3.376695660907e+03 
       1.284357651617e-01       3.162330345316e+03 
       1.327358534733e-01       2.943465520892e+03 
       1.371777604691e-01       2.737509978049e+03 
       1.417668595113e-01       2.559334074287e+03 
       1.465085640798e-01       2.417639951168e+03 
       1.514083400780e-01       2.312987271224e+03 
       1.564717213323e-01       2.237675210452e+03 
       1.617043290292e-01       2.177506992694e+03 
       1.671118958315e-01       2.115577052581e+03 
       1.727002954153e-01       2.037777570120e+03 
       1.784755781869e-01       1.938315702137e+03 
       1.844440139661e-01       1.822291007064e+03 
       1.906121424760e-01       1.703208951539e+03 
       1.969868325696e-01       1.596365292771e+03 
       2.035753512558e-01       1.511734500524e+03 
       2.103854437836e-01       1.449864651192e+03 
       2.174254263171e-01       1.402195287147e+03 
       2.247042931108e-01       1.355593264575e+03 
       2.322318405960e-01       1.299614937711e+03 
       2.400188114687e-01       1.232698639987e+03 
       2.480770627532e-01       1.162522256094e+03 
       2.564197629992e-01       1.099720489693e+03 
       2.650616253263e-01       1.049977697266e+03 
       2.740191851149e-01       1.010486087188e+03 
       2.833111339335e-01       9.729423402968e+02 
       2.929587250906e-01       9.308105032926e+02 
       3.029862714154e-01       8.848303005381e+02 
       3.134217631292e-01       8.411945984687e+02 
       3.242976439367e-01       8.043558258952e+02 
       3.356517981932e-01       7.725310454718e+02 
       3.475288235256e-01       7.406103604587e+02 
       3.599816953028e-01       7.067251951631e+02 
       3.730739779896e-01       6.739030310950e+02 
       3.868828139471e-01       6.446841502182e+02 
       4.015030404942e-01       6.172949844452e+02 
       4.170529827775e-01       5.893035783146e+02 
       4.336828018840e-01       5.617524240228e+02 
       4.515868570504e-01       5.359750333823e+02 
       4.710225923768e-01       5.105445622638e+02 
       4.923404525460e-01       4.849773297421e+02 
       5.160333071748e-01       4.599862397851e+02 
       5.428222502243e-01       4.346316868136e+02 
       5.738145009018e-01       4.087949768600e+02 
       6.108145828194e-01       3.818259540857e+02 
       6.569870066728e-01       3.529368529467e+02 
       7.183793465364e-01       3.207225770325e+02 
       8.075064354705e-01       2.830582903534e+02 
       9.495114404294e-01       2.377110308740e+02 
       1.173234120325e+00       1.877891743673e+02 
       1.475303442951e+00       1.430731651987e+02 
       1.857269259431e+00       1.062695878630e+02 
       2.338163381434e+00       7.665731901040e+01 
       2.943573297777e+00       5.354166350968e+01 
       3.705739226051e+00       3.620578899205e+01 
       4.665249281158e+00       2.376708142181e+01 
       5.873200872404e+00       1.520829173821e+01 
       7.393921826841e+00       9.528295842438e+00 
       9.308396080630e+00       5.869433608562e+00 
       1.171857636895e+01       3.567960825308e+00 
