# Matter power spectrum P(k) at redshift z=0
# for k=2.18866e-07 to 10.9843 h/Mpc,
# number of wavenumbers equal to 139
#    1:k (h/Mpc)              2:P (Mpc/h)^3        
       2.188658271319e-07       8.071925626354e-01 
       2.755357515497e-07       1.013227927116e+00 
       3.468789594837e-07       1.271853680942e+00 
       4.366947369108e-07       1.596493485702e+00 
       5.497661014937e-07       2.003997383186e+00 
       6.921145157135e-07       2.515516376372e+00 
       8.713205517033e-07       3.157600246161e+00 
       1.096927584358e-06       3.963575584231e+00 
       1.380950010846e-06       4.975275566366e+00 
       1.738513061072e-06       6.245211246517e+00 
       2.188658271319e-06       7.839297065989e+00 
       2.755357515497e-06       9.840272034115e+00 
       3.468789594837e-06       1.235199414103e+01 
       4.366947369108e-06       1.550483086727e+01 
       5.497661014938e-06       1.946242552286e+01 
       6.921145157135e-06       2.443019050202e+01 
       8.713205517033e-06       3.066596805960e+01 
       1.096927584358e-05       3.849341149896e+01 
       1.380950010846e-05       4.831878041461e+01 
       1.738513061072e-05       6.065201995807e+01 
       2.188658271319e-05       7.613321470330e+01 
       2.755357515497e-05       9.556578317763e+01 
       3.468789594837e-05       1.199581220752e+02 
       4.366947369108e-05       1.505758340590e+02 
       5.497661014938e-05       1.890071952072e+02 
       6.921145157135e-05       2.372451517075e+02 
       8.713205517033e-05       2.977898875309e+02 
       1.096927584358e-04       3.737768654243e+02 
       1.380950010846e-04       4.691361637328e+02 
       1.738513061072e-04       5.887897869189e+02 
       2.188658271319e-04       7.388941614025e+02 
       2.755357515497e-04       9.271347843451e+02 
       3.468789594837e-04       1.163078299833e+03 
       4.366947369108e-04       1.458583428126e+03 
       5.497661014938e-04       1.828265903507e+03 
       6.921145157135e-04       2.290003842295e+03 
       8.713205517033e-04       2.865453569019e+03 
       1.096927584358e-03       3.580497953773e+03 
       1.380950010846e-03       4.465444978686e+03 
       1.738513061072e-03       5.554712342412e+03 
       2.188658271319e-03       6.885687658817e+03 
       2.755357515497e-03       8.496151924879e+03 
       3.468789594837e-03       1.041979597527e+04 
       4.366947369108e-03       1.260598554632e+04 
       5.497661014938e-03       1.516227847683e+04 
       6.921145157135e-03       1.799692777289e+04 
       8.713205517033e-03       2.100519601844e+04 
       1.096927584358e-02       2.399766022967e+04 
       1.380950010846e-02       2.667953667204e+04 
       1.738513060904e-02       2.865187732427e+04 
       2.188657887034e-02       2.947448540277e+04 
       2.755226673162e-02       2.884728470806e+04 
       3.459403706316e-02       2.693959717545e+04 
       4.200662871952e-02       2.485193289413e+04 
       4.745646461157e-02       2.362266600163e+04 
       5.164692670552e-02       2.286937268021e+04 
       5.525003500120e-02       2.231837265749e+04 
       5.854001024802e-02       2.185735523222e+04 
       6.164954023418e-02       2.142909294784e+04 
       6.465325466703e-02       2.099997757450e+04 
       6.759790762066e-02       2.054948078862e+04 
       7.051525238438e-02       2.006613717165e+04 
       7.342827348497e-02       1.954582938402e+04 
       7.635450426672e-02       1.899084385796e+04 
       7.930792740397e-02       1.840902832031e+04 
       8.230012868755e-02       1.781274368026e+04 
       8.534103109585e-02       1.721749525056e+04 
       8.843938012119e-02       1.664025988232e+04 
       9.160307498360e-02       1.609761274988e+04 
       9.483940067064e-02       1.560380273956e+04 
       9.815519402009e-02       1.516893650985e+04 
       1.015569646490e-01       1.479741783407e+04 
       1.050509841707e-01       1.448679019584e+04 
       1.086433526372e-01       1.422716495106e+04 
       1.123400483128e-01       1.400149312470e+04 
       1.161469650654e-01       1.378700657686e+04 
       1.200699404776e-01       1.355810983549e+04 
       1.241147769886e-01       1.329072385260e+04 
       1.282872578617e-01       1.296751765257e+04 
       1.325931594179e-01       1.258276683802e+04 
       1.370382607516e-01       1.214513155229e+04 
       1.416283519882e-01       1.167689014362e+04 
       1.463692420505e-01       1.120921839310e+04 
       1.512667668373e-01       1.077453865815e+04 
       1.563267986789e-01       1.039800969811e+04 
       1.615552579137e-01       1.009042053575e+04 
       1.669581274090e-01       9.844319656698e+03 
       1.725414708446e-01       9.634768369856e+03 
       1.783114555662e-01       9.425709314113e+03 
       1.842743808177e-01       9.181700303388e+03 
       1.904367121668e-01       8.881872898215e+03 
       1.968051229571e-01       8.529753043007e+03 
       2.033865436623e-01       8.152572996481e+03 
       2.101882200884e-01       7.788898858557e+03 
       2.172177814784e-01       7.470500472892e+03 
       2.244833197467e-01       7.207629569961e+03 
       2.319934813046e-01       6.984728925301e+03 
       2.397575732767e-01       6.769105886694e+03 
       2.477856863590e-01       6.529694334722e+03 
       2.560888371809e-01       6.256113442713e+03 
       2.646791338382e-01       5.964558292400e+03 
       2.735699693366e-01       5.684759057212e+03 
       2.827762490973e-01       5.437683117100e+03 
       2.923146605531e-01       5.221275406614e+03 
       3.022039953722e-01       5.014750598875e+03 
       3.124655382275e-01       4.797868302150e+03 
       3.231235406394e-01       4.568725126689e+03 
       3.342058047796e-01       4.342893709115e+03 
       3.457444110250e-01       4.135153896941e+03 
       3.577766356959e-01       3.944358778109e+03 
       3.703461236709e-01       3.757799873579e+03 
       3.835044074048e-01       3.568402160503e+03 
       3.973129040840e-01       3.382215251724e+03 
       4.118455841747e-01       3.207018912025e+03 
       4.271926009581e-01       3.040702593935e+03 
       4.434653254047e-01       2.877110492456e+03 
       4.608034865278e-01       2.716976065503e+03 
       4.793855537670e-01       2.563888552064e+03 
       4.994442696603e-01       2.416079858834e+03 
       5.212906619975e-01       2.271534405842e+03 
       5.453526038448e-01       2.131409390983e+03 
       5.722395533377e-01       1.994590121230e+03 
       6.028570938368e-01       1.859910792365e+03 
       6.386224919676e-01       1.726292301748e+03 
       6.819006075350e-01       1.591447426294e+03 
       7.369580634662e-01       1.451887514098e+03 
       8.121994269112e-01       1.301326446959e+03 
       9.252436576503e-01       1.128306475042e+03 
       1.108344859013e+00       9.183558682134e+02 
       1.383275370891e+00       6.871554166676e+02 
       1.740902900288e+00       4.826229592006e+02 
       2.191661815345e+00       3.239951769828e+02 
       2.759138745129e+00       2.104939036751e+02 
       3.473549880908e+00       1.336529250632e+02 
       4.372940214209e+00       8.354233566143e+01 
       5.505205559925e+00       5.166968193093e+01 
       6.930643176540e+00       3.173011211832e+01 
       8.725162815024e+00       1.939198773145e+01 
       1.098432918987e+01       1.181296337780e+01 
