# Matter power spectrum P(k) at redshift z=0.5
# for k=2.27178e-07 to 11.4015 h/Mpc,
# number of wavenumbers equal to 139
#    1:k (h/Mpc)              2:P (Mpc/h)^3        
       2.271780468130e-07       3.488476339674e-01 
       2.860002161347e-07       4.356580884659e-01 
       3.600529398706e-07       5.440712549582e-01 
       4.532797955943e-07       6.794629509485e-01 
       5.706454533265e-07       8.485467615974e-01 
       7.184000623175e-07       1.059706942147e+00 
       9.044120942860e-07       1.323414162450e+00 
       1.138587368231e-06       1.652744709127e+00 
       1.433396571413e-06       2.064028889986e+00 
       1.804539368931e-06       2.577660792822e+00 
       2.271780468130e-06       3.219109549238e+00 
       2.860002161347e-06       4.020182247108e+00 
       3.600529398706e-06       5.020601109519e+00 
       4.532797955943e-06       6.269973137486e+00 
       5.706454533265e-06       7.830249864291e+00 
       7.184000623175e-06       9.778799155620e+00 
       9.044120942860e-06       1.221224129988e+01 
       1.138587368231e-05       1.525123945939e+01 
       1.433396571413e-05       1.904648173336e+01 
       1.804539368931e-05       2.378615088724e+01 
       2.271780468130e-05       2.970525100861e+01 
       2.860002161347e-05       3.709725130709e+01 
       3.600529398706e-05       4.632861999432e+01 
       4.532797955943e-05       5.785696011379e+01 
       5.706454533265e-05       7.225362925726e+01 
       7.184000623175e-05       9.023193050002e+01 
       9.044120942860e-05       1.126822050587e+02 
       1.138587368231e-04       1.407154344273e+02 
       1.433396571413e-04       1.757172559481e+02 
       1.804539368931e-04       2.194145705282e+02 
       2.271780468130e-04       2.739570907308e+02 
       2.860002161347e-04       3.420160862286e+02 
       3.600529398706e-04       4.269019847451e+02 
       4.532797955943e-04       5.327010742715e+02 
       5.706454533265e-04       6.644291306068e+02 
       7.184000623175e-04       8.281965252866e+02 
       9.044120942860e-04       1.031375092037e+03 
       1.138587368231e-03       1.282746815609e+03 
       1.433396571413e-03       1.592583231978e+03 
       1.804539368931e-03       1.972554024660e+03 
       2.271780468130e-03       2.435344474257e+03 
       2.860002161347e-03       2.993855536357e+03 
       3.600529398706e-03       3.659722158615e+03 
       4.532797955943e-03       4.426604912541e+03 
       5.706454533265e-03       5.316259966140e+03 
       7.184000623175e-03       6.305971938933e+03 
       9.044120942860e-03       7.361961387740e+03 
       1.138587368231e-02       8.421026689567e+03 
       1.433396571413e-02       9.381891486134e+03 
       1.804539368758e-02       1.010310162673e+04 
       2.271780070970e-02       1.042207263139e+04 
       2.859866780290e-02       1.021759495702e+04 
       3.590808753419e-02       9.529175891648e+03 
       4.360416518600e-02       8.738098820353e+03 
       4.926311890327e-02       8.243878879697e+03 
       5.361396452440e-02       7.922284644103e+03 
       5.735477454293e-02       7.675297617779e+03 
       6.077038351915e-02       7.462719676894e+03 
       6.399859876220e-02       7.264523893330e+03 
       6.711692289355e-02       7.069361995892e+03 
       7.017390682465e-02       6.870598066905e+03 
       7.320252261301e-02       6.664706900707e+03 
       7.622663607204e-02       6.450521498734e+03 
       7.926445223581e-02       6.228791613450e+03 
       8.233048904597e-02       6.001828169679e+03 
       8.543677552054e-02       5.773134594531e+03 
       8.859361404045e-02       5.546986853996e+03 
       9.181008431891e-02       5.327959505645e+03 
       9.509438733138e-02       5.120420385717e+03 
       9.845408626036e-02       4.928028892011e+03 
       1.018962789495e-01       4.753279887587e+03 
       1.054277234706e-01       4.597135379842e+03 
       1.090549307618e-01       4.458786476443e+03 
       1.127842336173e-01       4.335590817659e+03 
       1.166218383686e-01       4.223234691209e+03 
       1.205738637103e-01       4.116167813767e+03 
       1.246463698880e-01       4.008335998943e+03 
       1.288453806509e-01       3.894175484650e+03 
       1.331768998313e-01       3.769732812686e+03 
       1.376469240472e-01       3.633659544059e+03 
       1.422614527893e-01       3.487762566928e+03 
       1.470264969948e-01       3.336836244210e+03 
       1.519480871098e-01       3.187684859766e+03 
       1.570322815790e-01       3.047510634913e+03 
       1.622851766610e-01       2.922068551109e+03 
       1.677129184442e-01       2.814079326929e+03 
       1.733217179196e-01       2.722339807533e+03 
       1.791178699584e-01       2.641844290640e+03 
       1.851077770337e-01       2.565087783016e+03 
       1.912979785255e-01       2.484427985154e+03 
       1.976951864545e-01       2.394897292235e+03 
       2.043063285099e-01       2.296309913022e+03 
       2.111385992807e-01       2.193453066761e+03 
       2.181995206698e-01       2.093957732209e+03 
       2.254970125902e-01       2.004742880182e+03 
       2.330394752122e-01       1.928767226816e+03 
       2.408358842817e-01       1.863676249795e+03 
       2.488959013769e-01       1.803096378669e+03 
       2.572300014395e-01       1.740183532090e+03 
       2.658496205512e-01       1.671664336379e+03 
       2.747673277622e-01       1.599726581741e+03 
       2.839970258912e-01       1.530147724622e+03 
       2.935541876809e-01       1.467891439694e+03 
       3.034561356437e-01       1.413513470140e+03 
       3.137223765333e-01       1.363102271733e+03 
       3.243750048891e-01       1.311828805424e+03 
       3.354391948834e-01       1.258176268904e+03 
       3.469438063029e-01       1.204870179553e+03 
       3.589221397366e-01       1.155519788820e+03 
       3.714128891620e-01       1.110645608186e+03 
       3.844613590765e-01       1.067506135186e+03 
       3.981210411664e-01       1.023759825877e+03 
       4.124556872398e-01       9.802163164361e+02 
       4.275420789951e-01       9.389802541896e+02 
       4.434737951794e-01       8.999957709752e+02 
       4.603664373027e-01       8.614754629842e+02 
       4.783650405181e-01       8.231048532574e+02 
       4.976548491730e-01       7.859508052605e+02 
       5.184774373548e-01       7.497102095712e+02 
       5.411556292582e-01       7.134768572843e+02 
       5.661335165740e-01       6.775199106573e+02 
       5.940436429364e-01       6.415351249485e+02 
       6.258258647454e-01       6.049197573270e+02 
       6.629510304656e-01       5.672922129216e+02 
       7.078732905135e-01       5.277097393399e+02 
       7.650201128649e-01       4.848952477754e+02 
       8.431124006901e-01       4.367372387122e+02 
       9.604320869595e-01       3.801423855537e+02 
       1.150455456227e+00       3.133875076383e+02 
       1.435810727355e+00       2.444939073926e+02 
       1.807019044087e+00       1.836133571815e+02 
       2.274896895591e+00       1.321272560663e+02 
       2.863925502445e+00       9.087093330725e+01 
       3.605468592512e+00       6.007845863016e+01 
       4.539016032539e+00       3.850765912106e+01 
       5.714282627905e+00       2.411604701453e+01 
       7.193855610443e+00       1.485090910557e+01 
       9.056527636765e+00       9.036135135712e+00 
       1.140149278454e+01       5.451584202509e+00 
