# Matter power spectrum P(k) at redshift z=1.5
# for k=2.17894e-07 to 10.9323 h/Mpc,
# number of wavenumbers equal to 139
#    1:k (h/Mpc)              2:P (Mpc/h)^3        
       2.178937115226e-07       1.805669621056e-01 
       2.743119305059e-07       2.255943877515e-01 
       3.453382600722e-07       2.818501633902e-01 
       4.347551112697e-07       3.521342678835e-01 
       5.473242574848e-07       4.399449021765e-01 
       6.890404162390e-07       5.496526024983e-01 
       8.674504897565e-07       6.867177718972e-01 
       1.092055465028e-06       8.579624566337e-01 
       1.374816376012e-06       1.071909894193e+00 
       1.730791272312e-06       1.339208732954e+00 
       2.178937115226e-06       1.673163036770e+00 
       2.743119305059e-06       2.090394452248e+00 
       3.453382600722e-06       2.611669494895e+00 
       4.347551112697e-06       3.262933122068e+00 
       5.473242574848e-06       4.076600025040e+00 
       6.890404162390e-06       5.093167890321e+00 
       8.674504897565e-06       6.363232876517e+00 
       1.092055465028e-05       7.950007534873e+00 
       1.374816376012e-05       9.932466315678e+00 
       1.730791272312e-05       1.240927487302e+01 
       2.178937115226e-05       1.550369803223e+01 
       2.743119305059e-05       1.936972933155e+01 
       3.453382600722e-05       2.419974448221e+01 
       4.347551112697e-05       3.023405427821e+01 
       5.473242574848e-05       3.777282175718e+01 
       6.890404162390e-05       4.719091566299e+01 
       8.674504897565e-05       5.895639794961e+01 
       1.092055465028e-04       7.365348365843e+01 
       1.374816376012e-04       9.201095570254e+01 
       1.730791272312e-04       1.149371365427e+02 
       2.178937115226e-04       1.435625549851e+02 
       2.743119305059e-04       1.792912870504e+02 
       3.453382600722e-04       2.238614034399e+02 
       4.347551112697e-04       2.794137445674e+02 
       5.473242574848e-04       3.485660901634e+02 
       6.890404162390e-04       4.344867214611e+02 
       8.674504897565e-04       5.409581434655e+02 
       1.092055465028e-03       6.724188712907e+02 
       1.374816376012e-03       8.339626004163e+02 
       1.730791272312e-03       1.031240137626e+03 
       2.178937115226e-03       1.270152966046e+03 
       2.743119305059e-03       1.556281367006e+03 
       3.453382600722e-03       1.893950208811e+03 
       4.347551112697e-03       2.284809648829e+03 
       5.473242574848e-03       2.725726223835e+03 
       6.890404162390e-03       3.205895655222e+03 
       8.674504897565e-03       3.703182366764e+03 
       1.092055465028e-02       4.179747266302e+03 
       1.374816376012e-02       4.578120638854e+03 
       1.730791272296e-02       4.821126016363e+03 
       2.178937050554e-02       4.823915558548e+03 
       2.743084209686e-02       4.531004512952e+03 
       3.449695239223e-02       3.983331339669e+03 
       4.252411025720e-02       3.404044460564e+03 
       4.885079454692e-02       3.066845819294e+03 
       5.353859926651e-02       2.882893106244e+03 
       5.747637702821e-02       2.759427049183e+03 
       6.102688295232e-02       2.662527341940e+03 
       6.435740068395e-02       2.576749849795e+03 
       6.755878141940e-02       2.493761608847e+03 
       7.068651619283e-02       2.408778617371e+03 
       7.377756769484e-02       2.319220238978e+03 
       7.685827710119e-02       2.224111625954e+03 
       7.994847860740e-02       2.123751156450e+03 
       8.306381508792e-02       2.019456947795e+03 
       8.621712417106e-02       1.913314926986e+03 
       8.941931001589e-02       1.807901690069e+03 
       9.267991425413e-02       1.705983464319e+03 
       9.600750259557e-02       1.610208882274e+03 
       9.940993393272e-02       1.522819573804e+03 
       1.028945519456e-01       1.445402337092e+03 
       1.064683240374e-01       1.378700741305e+03 
       1.101379435187e-01       1.322497520067e+03 
       1.139099055437e-01       1.275578119854e+03 
       1.177905639263e-01       1.235791767113e+03 
       1.217861738010e-01       1.200234626598e+03 
       1.259029236930e-01       1.165581615304e+03 
       1.301469596320e-01       1.128571368960e+03 
       1.345244033313e-01       1.086598219462e+03 
       1.390413660422e-01       1.038293768153e+03 
       1.437039594219e-01       9.839255069009e+02 
       1.485183045743e-01       9.254418310272e+02 
       1.534905403086e-01       8.660792370023e+02 
       1.586268315838e-01       8.095944506564e+02 
       1.639333790672e-01       7.593241181328e+02 
       1.694164306993e-01       7.173308610162e+02 
       1.750822961465e-01       6.838520443338e+02 
       1.809373650035e-01       6.571845981214e+02 
       1.869881296060e-01       6.340800602814e+02 
       1.932412133048e-01       6.106656529940e+02 
       1.997034050633e-01       5.837441247664e+02 
       2.063817012502e-01       5.520401582114e+02 
       2.132833555415e-01       5.167668878482e+02 
       2.204159379064e-01       4.810852986050e+02 
       2.277874037596e-01       4.486254339106e+02 
       2.354061745217e-01       4.217987829556e+02 
       2.432812310589e-01       4.007210498668e+02 
       2.514222218021e-01       3.832305208045e+02 
       2.598395877835e-01       3.660505703409e+02 
       2.685447074296e-01       3.466430970117e+02 
       2.775500647411e-01       3.247184510869e+02 
       2.868694455410e-01       3.022785979553e+02 
       2.965181678608e-01       2.820412634265e+02 
       3.065133543750e-01       2.654210865383e+02 
       3.168742572514e-01       2.515900322055e+02 
       3.276226490824e-01       2.383044838350e+02 
       3.387832980539e-01       2.238835314719e+02 
       3.503845516735e-01       2.086346166694e+02 
       3.624590619871e-01       1.942858856856e+02 
       3.750446973782e-01       1.820055191839e+02 
       3.881857035421e-01       1.711962218596e+02 
       4.019342018128e-01       1.603972748548e+02 
       4.163521511622e-01       1.491660070246e+02 
       4.315139582087e-01       1.384447072333e+02 
       4.475100098568e-01       1.289265492332e+02 
       4.644515472060e-01       1.200063798523e+02 
       4.824775355373e-01       1.109899008721e+02 
       5.017645846068e-01       1.022756235961e+02 
       5.225416728272e-01       9.424370443118e+01 
       5.451127022541e-01       8.640842546478e+01 
       5.698923349235e-01       7.869301011575e+01 
       5.974654128515e-01       7.134035256736e+01 
       6.286905492670e-01       6.405177916479e+01 
       6.648917306325e-01       5.688129198972e+01 
       7.082381135369e-01       4.967580223617e+01 
       7.625579555439e-01       4.234576504280e+01 
       8.352187451179e-01       3.471021165784e+01 
       9.415301858683e-01       2.662862627869e+01 
       1.111780741243e+00       1.832662315634e+01 
       1.377510542193e+00       1.121482022017e+01 
       1.732675676903e+00       6.559659976137e+00 
       2.181287801822e+00       3.791169494809e+00 
       2.746078586162e+00       2.171443664553e+00 
       3.457108114882e+00       1.233655925480e+00 
       4.352241257145e+00       6.957314854883e-01 
       5.479147116879e+00       3.897474625593e-01 
       6.897837540398e+00       2.170080772989e-01 
       8.683862966035e+00       1.201560893604e-01 
       1.093233576048e+01       6.618987838595e-02 
