# Matter power spectrum P(k) at redshift z=0
# for k=2.17894e-07 to 10.9323 h/Mpc,
# number of wavenumbers equal to 139
#    1:k (h/Mpc)              2:P (Mpc/h)^3        
       2.178937115226e-07       7.654257981649e-01 
       2.743119305059e-07       9.562976653812e-01 
       3.453382600722e-07       1.194766660274e+00 
       4.347551112697e-07       1.492701931151e+00 
       5.473242574848e-07       1.864932398832e+00 
       6.890404162390e-07       2.329984825404e+00 
       8.674504897565e-07       2.911005932776e+00 
       1.092055465028e-06       3.636914466184e+00 
       1.374816376012e-06       4.543840542529e+00 
       1.730791272312e-06       5.676923921649e+00 
       2.178937115226e-06       7.092560700580e+00 
       2.743119305059e-06       8.861210246371e+00 
       3.453382600722e-06       1.107090206171e+01 
       4.347551112697e-06       1.383161709751e+01 
       5.473242574848e-06       1.728076152405e+01 
       6.890404162390e-06       2.159000529205e+01 
       8.674504897565e-06       2.697382562793e+01 
       1.092055465028e-05       3.370018025308e+01 
       1.374816376012e-05       4.210384068060e+01 
       1.730791272312e-05       5.260304749027e+01 
       2.178937115226e-05       6.572031311703e+01 
       2.743119305059e-05       8.210840078020e+01 
       3.453382600722e-05       1.025827591611e+02 
       4.347551112697e-05       1.281620006609e+02 
       5.473242574848e-05       1.601183855867e+02 
       6.890404162390e-05       2.000407217917e+02 
       8.674504897565e-05       2.499126076535e+02 
       1.092055465028e-04       3.122095158268e+02 
       1.374816376012e-04       3.900187785723e+02 
       1.730791272312e-04       4.871869636004e+02 
       2.178937115226e-04       6.084991728308e+02 
       2.743119305059e-04       7.598940307948e+02 
       3.453382600722e-04       9.487159597042e+02 
       4.347551112697e-04       1.184002203527e+03 
       5.473242574848e-04       1.476795933579e+03 
       6.890404162390e-04       1.840468992147e+03 
       8.674504897565e-04       2.291024136797e+03 
       1.092055465028e-03       2.847305680811e+03 
       1.374816376012e-03       3.530958161804e+03 
       1.730791272312e-03       4.365911025853e+03 
       2.178937115226e-03       5.377122329734e+03 
       2.743119305059e-03       6.588224722784e+03 
       3.453382600722e-03       8.017516150063e+03 
       4.347551112697e-03       9.671983181912e+03 
       5.473242574848e-03       1.153835897823e+04 
       6.890404162390e-03       1.357090543889e+04 
       8.674504897565e-03       1.567591969584e+04 
       1.092055465028e-02       1.769322437793e+04 
       1.374816376012e-02       1.937954492256e+04 
       1.730791272296e-02       2.040818716507e+04 
       2.178937050554e-02       2.041998343077e+04 
       2.743084209686e-02       1.918006247071e+04 
       3.449695239223e-02       1.686171936187e+04 
       4.252411025720e-02       1.440955524687e+04 
       4.885079454692e-02       1.298216900421e+04 
       5.353859926651e-02       1.220348409845e+04 
       5.747637702821e-02       1.168084354919e+04 
       6.102688295232e-02       1.127066026855e+04 
       6.435740068395e-02       1.090755800382e+04 
       6.755878141940e-02       1.055626307104e+04 
       7.068651619283e-02       1.019652405477e+04 
       7.377756769484e-02       9.817417271527e+03 
       7.685827710119e-02       9.414815982328e+03 
       7.994847860740e-02       8.989983206457e+03 
       8.306381508792e-02       8.548498662994e+03 
       8.621712417106e-02       8.099192179773e+03 
       8.941931001589e-02       7.652970659738e+03 
       9.267991425413e-02       7.221543849360e+03 
       9.600750259557e-02       6.816123507366e+03 
       9.940993393272e-02       6.446198551137e+03 
       1.028945519456e-01       6.118486171680e+03 
       1.064683240374e-01       5.836133809646e+03 
       1.101379435187e-01       5.598221703796e+03 
       1.139099055437e-01       5.399608740589e+03 
       1.177905639263e-01       5.231190431728e+03 
       1.217861738010e-01       5.080674672413e+03 
       1.259029236930e-01       4.933986087975e+03 
       1.301469596320e-01       4.777319257201e+03 
       1.345244033313e-01       4.599644076975e+03 
       1.390413660422e-01       4.395168021854e+03 
       1.437039594219e-01       4.165023431446e+03 
       1.485183045743e-01       3.917458045958e+03 
       1.534905403086e-01       3.666172136978e+03 
       1.586268315838e-01       3.427068153306e+03 
       1.639333790672e-01       3.214270436426e+03 
       1.694164306993e-01       3.036510149089e+03 
       1.750822961465e-01       2.894792066347e+03 
       1.809373650035e-01       2.781906940915e+03 
       1.869881296060e-01       2.684103885877e+03 
       1.932412133048e-01       2.584989119551e+03 
       1.997034050633e-01       2.471028467059e+03 
       2.063817012502e-01       2.336823424683e+03 
       2.132833555415e-01       2.187509259343e+03 
       2.204159379064e-01       2.036466669300e+03 
       2.277874037596e-01       1.899061827835e+03 
       2.354061745217e-01       1.785502804046e+03 
       2.432812310589e-01       1.696279338794e+03 
       2.514222218021e-01       1.622240750540e+03 
       2.598395877835e-01       1.549516852721e+03 
       2.685447074296e-01       1.467363703303e+03 
       2.775500647411e-01       1.374555190253e+03 
       2.868694455410e-01       1.279565767876e+03 
       2.965181678608e-01       1.193899741143e+03 
       3.065133543750e-01       1.123545410927e+03 
       3.168742572514e-01       1.064997622399e+03 
       3.276226490824e-01       1.008758998606e+03 
       3.387832980539e-01       9.477141183004e+02 
       3.503845516735e-01       8.831644303690e+02 
       3.624590619871e-01       8.224252852535e+02 
       3.750446973782e-01       7.704416618495e+02 
       3.881857035421e-01       7.246851656349e+02 
       4.019342018128e-01       6.789724925880e+02 
       4.163521511622e-01       6.314297721530e+02 
       4.315139582087e-01       5.860457847983e+02 
       4.475100098568e-01       5.457547775849e+02 
       4.644515472060e-01       5.079950949836e+02 
       4.824775355373e-01       4.698277301071e+02 
       5.017645846068e-01       4.329395972324e+02 
       5.225416728272e-01       3.989399405298e+02 
       5.451127022541e-01       3.657726732587e+02 
       5.698923349235e-01       3.331127968850e+02 
       5.974654128515e-01       3.019884990017e+02 
       6.286905492670e-01       2.711354736456e+02 
       6.648917306325e-01       2.407823154236e+02 
       7.082381135369e-01       2.102809889926e+02 
       7.625579555439e-01       1.792524449568e+02 
       8.352187451179e-01       1.469306303987e+02 
       9.415301858683e-01       1.127207325666e+02 
       1.111780741243e+00       7.757779219277e+01 
       1.377510542193e+00       4.747305080690e+01 
       1.732675676903e+00       2.776744501406e+01 
       2.181287801822e+00       1.604824043754e+01 
       2.746078586162e+00       9.191834565929e+00 
       3.457108114882e+00       5.222118820334e+00 
       4.352241257145e+00       2.945051407652e+00 
       5.479147116879e+00       1.649803331275e+00 
       6.897837540398e+00       9.185886396977e-01 
       8.683862966035e+00       5.086102110271e-01 
       1.093233576048e+01       2.801699500631e-01 
