# Matter power spectrum P(k) at redshift z=0
# for k=1.80241e-07 to 11.3874 h/Mpc,
# number of wavenumbers equal to 140
#    1:k (h/Mpc)              2:P (Mpc/h)^3        
       1.802406768921e-07       2.386422829399e+00 
       2.269095683785e-07       2.968365632587e+00 
       2.856622218109e-07       3.692218502568e+00 
       3.596274302273e-07       4.592587016382e+00 
       4.527441106914e-07       5.712515516232e+00 
       5.699710659895e-07       7.105544949671e+00 
       7.175510589616e-07       8.838272523113e+00 
       9.033432623866e-07       1.099353553956e+01 
       1.137241788592e-06       1.367437162629e+01 
       1.431702587012e-06       1.700894467829e+01 
       1.802406768921e-06       2.115667199435e+01 
       2.269095683785e-06       2.631584550999e+01 
       2.856622218109e-06       3.273311142513e+01 
       3.596274302273e-06       4.071526132328e+01 
       4.527441106914e-06       5.064389828446e+01 
       5.699710659895e-06       6.299367876297e+01 
       7.175510589616e-06       7.835500154013e+01 
       9.033432623866e-06       9.746222695389e+01 
       1.137241788592e-05       1.212287725069e+02 
       1.431702587012e-05       1.507907567704e+02 
       1.802406768921e-05       1.875612665222e+02 
       2.269095683785e-05       2.332978185912e+02 
       2.856622218109e-05       2.901861966046e+02 
       3.596274302273e-05       3.609445820689e+02 
       4.527441106914e-05       4.489527839531e+02 
       5.699710659895e-05       5.584124034975e+02 
       7.175510589616e-05       6.945449231611e+02 
       9.033432623866e-05       8.638358891989e+02 
       1.137241788592e-04       1.074334346382e+03 
       1.431702587012e-04       1.336017032240e+03 
       1.802406768921e-04       1.661225714668e+03 
       2.269095683785e-04       2.065182103157e+03 
       2.856622218109e-04       2.566576174844e+03 
       3.596274302273e-04       3.188209075157e+03 
       4.527441106914e-04       3.957651712422e+03 
       5.699710659895e-04       4.907857460515e+03 
       7.175510589616e-04       6.077630497859e+03 
       9.033432623866e-04       7.511733428196e+03 
       1.137241788592e-03       9.260153476290e+03 
       1.431702587012e-03       1.137589799137e+04 
       1.802406768921e-03       1.391075218409e+04 
       2.269095683785e-03       1.690795525491e+04 
       2.856622218109e-03       2.039110176234e+04 
       3.596274302273e-03       2.434851399951e+04 
       4.527441106914e-03       2.857276883094e+04 
       5.699710659895e-03       3.312610143257e+04 
       7.175510589617e-03       3.764445003271e+04 
       9.033432623866e-03       4.171512104002e+04 
       1.137241788592e-02       4.477004804295e+04 
       1.431702586928e-02       4.612419323458e+04 
       1.802406551408e-02       4.513714852853e+04 
       2.269013901056e-02       4.158141692160e+04 
       2.850256806132e-02       3.619696807352e+04 
       3.473770380922e-02       3.129069661631e+04 
       3.937535556422e-02       2.861837584304e+04 
       4.291236300852e-02       2.705059650471e+04 
       4.593925226532e-02       2.592372244922e+04 
       4.869595646371e-02       2.499137233192e+04 
       5.129739384670e-02       2.413896262443e+04 
       5.380772718304e-02       2.330548561742e+04 
       5.626693897412e-02       2.245783765306e+04 
       5.870207211998e-02       2.158061694217e+04 
       6.113263665234e-02       2.067122782385e+04 
       6.357347417622e-02       1.973685202088e+04 
       6.603639264485e-02       1.879195741637e+04 
       6.853115584121e-02       1.785582791894e+04 
       7.106611137513e-02       1.694998827882e+04 
       7.364860504373e-02       1.609560021957e+04 
       7.628526314309e-02       1.531100652318e+04 
       7.898218997731e-02       1.460960859629e+04 
       8.174510906845e-02       1.399823029069e+04 
       8.457946588510e-02       1.347606456817e+04 
       8.749050358236e-02       1.303428009864e+04 
       9.048331938254e-02       1.265639296264e+04 
       9.356290680047e-02       1.231958055648e+04 
       9.673418736221e-02       1.199714383599e+04 
       1.000020344500e-01       1.166220960586e+04 
       1.033712912353e-01       1.129240440806e+04 
       1.068467842165e-01       1.087466771773e+04 
       1.104333335775e-01       1.040883591750e+04 
       1.141357613910e-01       9.908520221139e+03 
       1.179588985566e-01       9.398410578544e+03 
       1.219075912847e-01       8.908360130019e+03 
       1.259867078807e-01       8.465834996226e+03 
       1.302011465556e-01       8.088878561981e+03 
       1.345558449649e-01       7.781408368986e+03 
       1.390557921661e-01       7.531922192383e+03 
       1.437060436761e-01       7.316146124050e+03 
       1.485117403044e-01       7.103759914855e+03 
       1.534781314345e-01       6.868283347107e+03 
       1.586106034348e-01       6.597087752909e+03 
       1.639147138918e-01       6.296698851179e+03 
       1.693962323939e-01       5.989645306459e+03 
       1.750611886510e-01       5.703644409474e+03 
       1.809159288237e-01       5.458607809972e+03 
       1.869671810747e-01       5.257925501482e+03 
       1.932221315522e-01       5.087830018733e+03 
       1.996885122842e-01       4.925153963027e+03 
       2.063747028409e-01       4.750329866638e+03 
       2.132898481162e-01       4.558637787007e+03 
       2.204439952493e-01       4.361766722204e+03 
       2.278482535771e-01       4.177956567373e+03 
       2.355149826786e-01       4.018283874424e+03 
       2.434580151043e-01       3.879505750935e+03 
       2.516929224474e-01       3.748285762044e+03 
       2.602373361831e-01       3.613098816521e+03 
       2.691113384813e-01       3.473634854559e+03 
       2.783379434039e-01       3.338872850149e+03 
       2.879436961842e-01       3.216290424937e+03 
       2.979594286172e-01       3.104223671803e+03 
       3.084212235036e-01       2.995273820094e+03 
       3.193716629793e-01       2.885751841316e+03 
       3.308614683239e-01       2.778940832574e+03 
       3.429516889070e-01       2.678535126430e+03 
       3.557166762210e-01       2.582877038563e+03 
       3.692482045226e-01       2.488508995935e+03 
       3.836613067926e-01       2.395702465057e+03 
       3.991027475374e-01       2.305989003511e+03 
       4.157636764868e-01       2.218026098961e+03 
       4.338991506589e-01       2.130440275271e+03 
       4.538594103308e-01       2.043428163511e+03 
       4.761422446480e-01       1.955828150364e+03 
       5.014853378284e-01       1.866334894068e+03 
       5.310393953907e-01       1.773399781880e+03 
       5.667167113156e-01       1.674342821292e+03 
       6.119506686650e-01       1.564983466162e+03 
       6.734707959947e-01       1.438104984306e+03 
       7.653690198619e-01       1.281536413580e+03 
       9.139825917784e-01       1.081962280274e+03 
       1.139189172071e+00       8.554733571404e+02 
       1.433594792348e+00       6.440211438623e+02 
       1.804783113649e+00       4.642835080056e+02 
       2.272087314014e+00       3.218391028464e+02 
       2.860388457425e+00       2.159221093962e+02 
       3.601015716655e+00       1.411470340987e+02 
       4.533410193967e+00       9.043818240407e+01 
       5.707225295271e+00       5.707816437601e+01 
       7.184970955052e+00       3.562039608333e+01 
       9.045342518318e+00       2.204496109645e+01 
       1.138741155469e+01       1.355970465929e+01 
