# Matter power spectrum P(k) at redshift z=2.5
# for k=2.38747e-07 to 11.9779 h/Mpc,
# number of wavenumbers equal to 139
#    1:k (h/Mpc)              2:P (Mpc/h)^3        
       2.387466534564e-07       1.098471677541e-01 
       3.005642290170e-07       1.363323319884e-01 
       3.783879457859e-07       1.692033132418e-01 
       4.763622004664e-07       2.099997909490e-01 
       5.997044793854e-07       2.606326751056e-01 
       7.549832086650e-07       3.234736137216e-01 
       9.504675468663e-07       4.014660808016e-01 
       1.196567747836e-06       4.982632485874e-01 
       1.506389544684e-06       6.183991018811e-01 
       1.896432077863e-06       7.675008096208e-01 
       2.387466534564e-06       9.525522995808e-01 
       3.005642290170e-06       1.182221382371e+00 
       3.783879457859e-06       1.467265745376e+00 
       4.763622004664e-06       1.821036828547e+00 
       5.997044793854e-06       2.260105178718e+00 
       7.549832086650e-06       2.805036558246e+00 
       9.504675468663e-06       3.481355136757e+00 
       1.196567747836e-05       4.320738825434e+00 
       1.506389544684e-05       5.362502645968e+00 
       1.896432077863e-05       6.655439402279e+00 
       2.387466534564e-05       8.260103476947e+00 
       3.005642290170e-05       1.025164393772e+01 
       3.783879457859e-05       1.272331810000e+01 
       4.763622004664e-05       1.579084707088e+01 
       5.997044793854e-05       1.959781128665e+01 
       7.549832086650e-05       2.432232706438e+01 
       9.504675468663e-05       3.018529370601e+01 
       1.196567747836e-04       3.746055247464e+01 
       1.506389544684e-04       4.648734509862e+01 
       1.896432077863e-04       5.768548443032e+01 
       2.387466534564e-04       7.157361836133e+01 
       3.005642290170e-04       8.879081515252e+01 
       3.783879457859e-04       1.101213103284e+02 
       4.763622004664e-04       1.365214553682e+02 
       5.997044793854e-04       1.691464876181e+02 
       7.549832086650e-04       2.093726159036e+02 
       9.504675468663e-04       2.588075405579e+02 
       1.196567747836e-03       3.192812475224e+02 
       1.506389544684e-03       3.928091594183e+02 
       1.896432077863e-03       4.815131300284e+02 
       2.387466534564e-03       5.874539824784e+02 
       3.005642290170e-03       7.123060022201e+02 
       3.783879457859e-03       8.568838335165e+02 
       4.763622004664e-03       1.020523434604e+03 
       5.997044793854e-03       1.199671571534e+03 
       7.549832086650e-03       1.388916372017e+03 
       9.504675468663e-03       1.577172631960e+03 
       1.196567747836e-02       1.748362308173e+03 
       1.506389544684e-02       1.880540845360e+03 
       1.896432077859e-02       1.946984119891e+03 
       2.387466511172e-02       1.921184083797e+03 
       3.005625399815e-02       1.789069644096e+03 
       3.781640022277e-02       1.568728201492e+03 
       4.691937479157e-02       1.333561305313e+03 
       5.451413547745e-02       1.187142197700e+03 
       6.003692917518e-02       1.106421637277e+03 
       6.460406133587e-02       1.050740201072e+03 
       6.868791223391e-02       1.005773401040e+03 
       7.250007628685e-02       9.655012924201e+02 
       7.615296656547e-02       9.269459018903e+02 
       7.971416695164e-02       8.885710618268e+02 
       8.322816009578e-02       8.496755439193e+02 
       8.672634576004e-02       8.101121679765e+02 
       9.023218132092e-02       7.701244801396e+02 
       9.376404347523e-02       7.302264927392e+02 
       9.733692638629e-02       6.910967968421e+02 
       1.009635022688e-01       6.534777182569e+02 
       1.046548119916e-01       6.180800896597e+02 
       1.084207304874e-01       5.854970582451e+02 
       1.122702894381e-01       5.561325733029e+02 
       1.162119062941e-01       5.301489067973e+02 
       1.202535499153e-01       5.074370238344e+02 
       1.244028621605e-01       4.876130491087e+02 
       1.286672481214e-01       4.700447175318e+02 
       1.330539435790e-01       4.539124826535e+02 
       1.375700656373e-01       4.383077311490e+02 
       1.422226507825e-01       4.223645299188e+02 
       1.470186834987e-01       4.054091526977e+02 
       1.519651178245e-01       3.870978047252e+02 
       1.570688937388e-01       3.675027924402e+02 
       1.623369499362e-01       3.471114671961e+02 
       1.677762343338e-01       3.267225801481e+02 
       1.733937135114e-01       3.072564363173e+02 
       1.791963821985e-01       2.895260328752e+02 
       1.851912738631e-01       2.740298871329e+02 
       1.913854734254e-01       2.608212449257e+02 
       1.977861330941e-01       2.494895216066e+02 
       2.044004923113e-01       2.392692040828e+02 
       2.112359027802e-01       2.292660969867e+02 
       2.182998595441e-01       2.187508808952e+02 
       2.256000390934e-01       2.074201181049e+02 
       2.331443454858e-01       1.955032637722e+02 
       2.409409655111e-01       1.836431261714e+02 
       2.489984339905e-01       1.725901478072e+02 
       2.573257104204e-01       1.628552344791e+02 
       2.659322683347e-01       1.544880178477e+02 
       2.748281990122e-01       1.470837328684e+02 
       2.840243315043e-01       1.400175037874e+02 
       2.935323714396e-01       1.327938240428e+02 
       3.033650617082e-01       1.253137695583e+02 
       3.135363689917e-01       1.178823426983e+02 
       3.240617012475e-01       1.109469075350e+02 
       3.349581627647e-01       1.047611719844e+02 
       3.462448554099e-01       9.922327907002e+01 
       3.579432373455e-01       9.399755037124e+01 
       3.700775540822e-01       8.880885051123e+01 
       3.826753615800e-01       8.365288856838e+01 
       3.957681677766e-01       7.873503659910e+01 
       4.093922281889e-01       7.421770477962e+01 
       4.235895443171e-01       7.005225004753e+01 
       4.384091323334e-01       6.606488300865e+01 
       4.539086569035e-01       6.216929297909e+01 
       4.701565656347e-01       5.843304095684e+01 
       4.872349212976e-01       5.493168077375e+01 
       5.052432245329e-01       5.162506288072e+01 
       5.243036716057e-01       4.843407608943e+01 
       5.445685396534e-01       4.535880672837e+01 
       5.662308090317e-01       4.242883675641e+01 
       5.895398586287e-01       3.961472260518e+01 
       6.148253839715e-01       3.688353705961e+01 
       6.425351707869e-01       3.423778180526e+01 
       6.732972861464e-01       3.165592168314e+01 
       7.080276020784e-01       2.911207853862e+01 
       7.481267291358e-01       2.658377014570e+01 
       7.958659582370e-01       2.403195445440e+01 
       8.552041485659e-01       2.140655934041e+01 
       9.336556362297e-01       1.863363133592e+01 
       1.046700142554e+00       1.562012489466e+01 
       1.225818724444e+00       1.234020175893e+01 
       1.510247658972e+00       9.163405447079e+00 
       1.898406336410e+00       6.711638590765e+00 
       2.389899427777e+00       4.955838838918e+00 
       3.008704934771e+00       3.670282314543e+00 
       3.787735098881e+00       2.705800730991e+00 
       4.768475969126e+00       1.971431547605e+00 
       6.003155573062e+00       1.410797467827e+00 
       7.557525101882e+00       9.869126146190e-01 
       9.514360401031e+00       6.727832338451e-01 
       1.197787008583e+01       4.462565243708e-01 
