# Matter power spectrum P(k) at redshift z=1
# for k=1.71228e-07 to 10.8148 h/Mpc,
# number of wavenumbers equal to 140
#    1:k (h/Mpc)              2:P (Mpc/h)^3        
       1.712277291965e-07       9.131827330295e-01 
       2.155629394893e-07       1.139797475175e+00 
       2.713776623641e-07       1.422648761166e+00 
       3.416442353435e-07       1.775692208920e+00 
       4.301046096669e-07       2.216346651053e+00 
       5.414696228395e-07       2.766353562919e+00 
       6.816698679072e-07       3.452849765096e+00 
       8.581715191628e-07       4.309706324697e+00 
       1.080373933152e-06       5.379199715184e+00 
       1.360110198685e-06       6.714097683444e+00 
       1.712277291965e-06       8.380262732055e+00 
       2.155629394893e-06       1.045990165508e+01 
       2.713776623641e-06       1.305562143291e+01 
       3.416442353435e-06       1.629549153828e+01 
       4.301046096669e-06       2.033936231733e+01 
       5.414696228395e-06       2.538675097931e+01 
       6.816698679072e-06       3.168668383924e+01 
       8.581715191628e-06       3.954997959602e+01 
       1.080373933152e-05       4.936457801375e+01 
       1.360110198685e-05       6.161466699712e+01 
       1.712277291965e-05       7.690454527687e+01 
       2.155629394893e-05       9.598838511999e+01 
       2.713776623641e-05       1.198073380787e+02 
       3.416442353435e-05       1.495357640973e+02 
       4.301046096669e-05       1.866387655688e+02 
       5.414696228395e-05       2.329436688515e+02 
       6.816698679072e-05       2.907285950230e+02 
       8.581715191628e-05       3.628317342318e+02 
       1.080373933152e-04       4.527852431217e+02 
       1.360110198685e-04       5.649775264724e+02 
       1.712277291965e-04       7.048464873234e+02 
       2.155629394893e-04       8.791031707060e+02 
       2.713776623641e-04       1.095978642688e+03 
       3.416442353435e-04       1.365475363256e+03 
       4.301046096669e-04       1.699587532492e+03 
       5.414696228395e-04       2.112437162416e+03 
       6.816698679072e-04       2.620262432926e+03 
       8.581715191628e-04       3.241181020667e+03 
       1.080373933152e-03       3.994545579770e+03 
       1.360110198685e-03       4.899447679972e+03 
       1.712277291965e-03       5.971957384246e+03 
       2.155629394893e-03       7.221126305979e+03 
       2.713776623641e-03       8.643499964754e+03 
       3.416442353435e-03       1.021631926989e+04 
       4.301046096669e-03       1.188930072591e+04 
       5.414696228395e-03       1.355752737355e+04 
       6.816698679072e-03       1.512314209131e+04 
       8.581715191628e-03       1.639765569980e+04 
       1.080373933152e-02       1.716355325458e+04 
       1.360110198680e-02       1.718418715016e+04 
       1.712277265615e-02       1.626940232871e+04 
       2.155612450671e-02       1.440846321386e+04 
       2.711732372575e-02       1.194440104382e+04 
       3.356417941074e-02       9.701239438617e+03 
       3.881557865572e-02       8.479103932579e+03 
       4.266122437710e-02       7.844793006749e+03 
       4.586207218475e-02       7.419498215333e+03 
       4.873405132420e-02       7.078295554256e+03 
       5.142034297072e-02       6.769996606420e+03 
       5.399770097013e-02       6.470243840948e+03 
       5.651256853343e-02       6.167444725047e+03 
       5.899566267744e-02       5.857408429380e+03 
       6.146875002245e-02       5.540776945496e+03 
       6.394814344982e-02       5.221448102674e+03 
       6.644665731722e-02       4.905361583493e+03 
       6.897477177324e-02       4.599429376264e+03 
       7.154136200656e-02       4.310563563857e+03 
       7.415417420867e-02       4.044821913790e+03 
       7.682014695320e-02       3.806713414810e+03 
       7.954563437547e-02       3.598698121288e+03 
       8.233656477542e-02       3.420895917337e+03 
       8.519855544882e-02       3.271006384076e+03 
       8.813699704548e-02       3.144446641275e+03 
       9.115711620869e-02       3.034729299870e+03 
       9.426402241883e-02       2.934122578025e+03 
       9.746274315975e-02       2.834613663050e+03 
       1.007582503531e-01       2.729123495909e+03 
       1.041554802342e-01       2.612791462691e+03 
       1.076593483283e-01       2.484019133904e+03 
       1.112747608470e-01       2.344911493773e+03 
       1.150066235934e-01       2.200858394477e+03 
       1.188598493198e-01       2.059252998492e+03 
       1.228393643814e-01       1.927652522355e+03 
       1.269501154705e-01       1.811889203168e+03 
       1.311970771753e-01       1.714638885540e+03 
       1.355852610849e-01       1.634788447504e+03 
       1.401197271469e-01       1.567750065372e+03 
       1.448055979708e-01       1.506729213915e+03 
       1.496480767690e-01       1.444773328856e+03 
       1.546524696188e-01       1.377090715182e+03 
       1.598242127347e-01       1.302750858774e+03 
       1.651689054524e-01       1.224866783257e+03 
       1.706923496514e-01       1.148998231894e+03 
       1.764005963952e-01       1.080495390067e+03 
       1.823000006468e-01       1.022095956768e+03 
       1.883972850426e-01       9.728918364065e+02 
       1.946996138870e-01       9.290763615970e+02 
       2.012146787822e-01       8.861070380620e+02 
       2.079507976548e-01       8.412029959608e+02 
       2.149170294063e-01       7.947028084084e+02 
       2.221233070350e-01       7.493509785165e+02 
       2.295805928993e-01       7.080482280597e+02 
       2.373010608775e-01       6.717691714522e+02 
       2.452983116187e-01       6.391326208364e+02 
       2.535876289995e-01       6.077906099421e+02 
       2.621862884751e-01       5.764069869670e+02 
       2.711139315163e-01       5.455016807061e+02 
       2.803930251271e-01       5.164812038339e+02 
       2.900494321312e-01       4.899956888878e+02 
       3.001131273686e-01       4.653764332092e+02 
       3.106191085130e-01       4.415928285196e+02 
       3.216085700353e-01       4.184210476284e+02 
       3.331304383161e-01       3.963780656740e+02 
       3.452434106674e-01       3.757196605481e+02 
       3.580187105182e-01       3.560598183676e+02 
       3.715438816014e-01       3.370380630262e+02 
       3.859281248386e-01       3.187490109067e+02 
       4.013099865801e-01       3.012666309255e+02 
       4.178687389962e-01       2.843656615238e+02 
       4.358417586052e-01       2.679155961808e+02 
       4.555520380349e-01       2.518951708924e+02 
       4.774536096338e-01       2.361358506228e+02 
       5.022103401892e-01       2.204858162123e+02 
       5.308408117632e-01       2.047535937277e+02 
       5.650035468458e-01       1.886563282901e+02 
       6.076037347416e-01       1.717900857902e+02 
       6.641864080245e-01       1.535332858909e+02 
       7.462172457437e-01       1.329906038791e+02 
       8.767879028298e-01       1.095058095276e+02 
       1.082814174500e+00       8.523757797278e+01 
       1.361521774795e+00       6.481685858287e+01 
       1.714026851495e+00       4.874786171361e+01 
       2.157831872540e+00       3.606945805938e+01 
       2.716549378682e+00       2.611611060792e+01 
       3.419933045217e+00       1.842805838444e+01 
       4.305440617258e+00       1.263712983816e+01 
       5.420228602036e+00       8.413695445758e+00 
       6.823663524837e+00       5.445848424543e+00 
       8.590483412951e+00       3.437740596990e+00 
       1.081477786816e+01       2.124880793024e+00 
