# Matter power spectrum P(k) at redshift z=2
# for k=2.18097e-07 to 10.9455 h/Mpc,
# number of wavenumbers equal to 139
#    1:k (h/Mpc)              2:P (Mpc/h)^3        
       2.180967700610e-07       2.023129261495e-01 
       2.745675660600e-07       2.508497261540e-01 
       3.456600861674e-07       3.110309671994e-01 
       4.351602663192e-07       3.856502617653e-01 
       5.478343174723e-07       4.781714362850e-01 
       6.896825437188e-07       5.928893222128e-01 
       8.682588803584e-07       7.351291216098e-01 
       1.093073168499e-06       9.114936027542e-01 
       1.376097588774e-06       1.130169599670e+00 
       1.732404223616e-06       1.401308044097e+00 
       2.180967700610e-06       1.737495168027e+00 
       2.745675660600e-06       2.154336751786e+00 
       3.456600861674e-06       2.671182534167e+00 
       4.351602663192e-06       3.312024405879e+00 
       5.478343174723e-06       4.106610073988e+00 
       6.896825437188e-06       5.091823871369e+00 
       8.682588803584e-06       6.313398774321e+00 
       1.093073168499e-05       7.828039024687e+00 
       1.376097588774e-05       9.706051746185e+00 
       1.732404223616e-05       1.203460943812e+01 
       2.180967700610e-05       1.492179423345e+01 
       2.745675660600e-05       1.850161057159e+01 
       3.456600861674e-05       2.294019685498e+01 
       4.351602663192e-05       2.844352024473e+01 
       5.478343174723e-05       3.526690357882e+01 
       6.896825437188e-05       4.372681062222e+01 
       8.682588803584e-05       5.421540513321e+01 
       1.093073168499e-04       6.721849816668e+01 
       1.376097588774e-04       8.333759681095e+01 
       1.732404223616e-04       1.033168457594e+02 
       2.180967700610e-04       1.280756662700e+02 
       2.745675660600e-04       1.587477620718e+02 
       3.456600861674e-04       1.967267331802e+02 
       4.351602663192e-04       2.437175983533e+02 
       5.478343174723e-04       3.017918290140e+02 
       6.896825437188e-04       3.734409765271e+02 
       8.682588803584e-04       4.616211531491e+02 
       1.093073168499e-03       5.697784755654e+02 
       1.376097588774e-03       7.018418173674e+02 
       1.732404223616e-03       8.621497695550e+02 
       2.180967700610e-03       1.055233183910e+03 
       2.745675660600e-03       1.285368173989e+03 
       3.456600861674e-03       1.555892471488e+03 
       4.351602663192e-03       1.866199207348e+03 
       5.478343174723e-03       2.217016278670e+03 
       6.896825437188e-03       2.599079650551e+03 
       8.682588803584e-03       2.996120199165e+03 
       1.093073168499e-02       3.380573399832e+03 
       1.376097588774e-02       3.711116286544e+03 
       1.732404223477e-02       3.933216491574e+03 
       2.180967367131e-02       3.988195644027e+03 
       2.745557879415e-02       3.838521868867e+03 
       3.447893077382e-02       3.512169932204e+03 
       4.192513838584e-02       3.166409740110e+03 
       4.742195712808e-02       2.955245273551e+03 
       5.163582030996e-02       2.818668582165e+03 
       5.525277659938e-02       2.713610826691e+03 
       5.855226812447e-02       2.623102320698e+03 
       6.166900117106e-02       2.539011745266e+03 
       6.467853625743e-02       2.456934295086e+03 
       6.762811742342e-02       2.374438196596e+03 
       7.054978206599e-02       2.290344347926e+03 
       7.346669194086e-02       2.204372207272e+03 
       7.639649746406e-02       2.116923899794e+03 
       7.935326231942e-02       2.028913339614e+03 
       8.234863057757e-02       1.941603551228e+03 
       8.539256857884e-02       1.856438729592e+03 
       8.849385505948e-02       1.774871444899e+03 
       9.166041543524e-02       1.698192128583e+03 
       9.489955587317e-02       1.627373284506e+03 
       9.821813075991e-02       1.562940294473e+03 
       1.016226646002e-01       1.504882401525e+03 
       1.051194419274e-01       1.452616824550e+03 
       1.087145742519e-01       1.405018319505e+03 
       1.124140502085e-01       1.360525928581e+03 
       1.162237732282e-01       1.317332751115e+03 
       1.201495898588e-01       1.273651202910e+03 
       1.241973110653e-01       1.228023540021e+03 
       1.283727283126e-01       1.179621169503e+03 
       1.326816258835e-01       1.128455315246e+03 
       1.371297906489e-01       1.075423912521e+03 
       1.417230203582e-01       1.022145470445e+03 
       1.464671314170e-01       9.705996047642e+02 
       1.513679670587e-01       9.226447206934e+02 
       1.564314067774e-01       8.795381941480e+02 
       1.616633778658e-01       8.415884868394e+02 
       1.670698698850e-01       8.080451572559e+02 
       1.726569528840e-01       7.772874366118e+02 
       1.784308001784e-01       7.473046185958e+02 
       1.843977164989e-01       7.163628793846e+02 
       1.905641723220e-01       6.836383996848e+02 
       1.969368452207e-01       6.495355918946e+02 
       2.035226691083e-01       6.154947227830e+02 
       2.103288923203e-01       5.833276928615e+02 
       2.173631455894e-01       5.543775300867e+02 
       2.246335211366e-01       5.289051189867e+02 
       2.321486643361e-01       5.060086372062e+02 
       2.399178797488e-01       4.841391838258e+02 
       2.479512537659e-01       4.619752277205e+02 
       2.562597967145e-01       4.391649876184e+02 
       2.648556080781e-01       4.164429720950e+02 
       2.737520695506e-01       3.950128009211e+02 
       2.829640720503e-01       3.756371349748e+02 
       2.925082846874e-01       3.581134154468e+02 
       3.024034761742e-01       3.415244248221e+02 
       3.126709025324e-01       3.250482171754e+02 
       3.233347795353e-01       3.086220744243e+02 
       3.344228646484e-01       2.928455297014e+02 
       3.459671820799e-01       2.782469887815e+02 
       3.580049371184e-01       2.647145436289e+02 
       3.705796840715e-01       2.517012438248e+02 
       3.837428387673e-01       2.389082683322e+02 
       3.975556664886e-01       2.265570872701e+02 
       4.120919372426e-01       2.149236714866e+02 
       4.274415357993e-01       2.038789529259e+02 
       4.437154673015e-01       1.931362238907e+02 
       4.610529525718e-01       1.827017841919e+02 
       4.796317391520e-01       1.726990921708e+02 
       4.996835172303e-01       1.630125284612e+02 
       5.215177334488e-01       1.535169528061e+02 
       5.455597990080e-01       1.442345018610e+02 
       5.724151728344e-01       1.350680022847e+02 
       6.029826029141e-01       1.259147068977e+02 
       6.386669370172e-01       1.166671484876e+02 
       6.818087750140e-01       1.071396913078e+02 
       7.366233500455e-01       9.707126964444e+01 
       8.113986956148e-01       8.606471404438e+01 
       9.235034154269e-01       7.360861449441e+01 
       1.104987200106e+00       5.967650546391e+01 
       1.378429268348e+00       4.633492397416e+01 
       1.734755057506e+00       3.553901427848e+01 
       2.183921503558e+00       2.693680632409e+01 
       2.749394268500e+00       2.002065706639e+01 
       3.461282311654e+00       1.450025735181e+01 
       4.357496259535e+00       1.018864979679e+01 
       5.485762772926e+00       6.929397259970e+00 
       6.906166157911e+00       4.563690457054e+00 
       8.694348074267e+00       2.919929413565e+00 
       1.094553572968e+01       1.823305658745e+00 
