# Matter power spectrum P(k) at redshift z=2
# for k=2.09e-07 to 10.4895 h/Mpc,
# number of wavenumbers equal to 139
#    1:k (h/Mpc)              2:P (Mpc/h)^3        
       2.090002883584e-07       9.979577642824e-02 
       2.631157740867e-07       1.253205121659e-01 
       3.312431342416e-07       1.573737018493e-01 
       4.170103991791e-07       1.976251262145e-01 
       5.249849885090e-07       2.481716451501e-01 
       6.609169428444e-07       3.116464317247e-01 
       8.320451344322e-07       3.913561447565e-01 
       1.047482763496e-06       4.914531858250e-01 
       1.318702669382e-06       6.171520142750e-01 
       1.660148301086e-06       7.750007890615e-01 
       2.090002883584e-06       9.732224869461e-01 
       2.631157740867e-06       1.222143267669e+00 
       3.312431342416e-06       1.534730399170e+00 
       4.170103991791e-06       1.927267763057e+00 
       5.249849885090e-06       2.420204122219e+00 
       6.609169428444e-06       3.039218330371e+00 
       8.320451344322e-06       3.816556949992e+00 
       1.047482763496e-05       4.792713905208e+00 
       1.318702669382e-05       6.018539587970e+00 
       1.660148301086e-05       7.557889073362e+00 
       2.090002883584e-05       9.490947038752e+00 
       2.631157740867e-05       1.191840181044e+01 
       3.312431342416e-05       1.496668446986e+01 
       4.170103991791e-05       1.879454291063e+01 
       5.249849885090e-05       2.360128728374e+01 
       6.609169428444e-05       2.963712444627e+01 
       8.320451344322e-05       3.721609600408e+01 
       1.047482763496e-04       4.673224704327e+01 
       1.318702669382e-04       5.867977519025e+01 
       1.660148301086e-04       7.367802783306e+01 
       2.090002883584e-04       9.250229569733e+01 
       2.631157740867e-04       1.161213263864e+02 
       3.312431342416e-04       1.457422306302e+02 
       4.170103991791e-04       1.828627842605e+02 
       5.249849885090e-04       2.293298061960e+02 
       6.609169428444e-04       2.874001970093e+02 
       8.320451344322e-04       3.597986844747e+02 
       1.047482763496e-03       4.497640327647e+02 
       1.318702669382e-03       5.610714579373e+02 
       1.660148301086e-03       6.980014498697e+02 
       2.090002883584e-03       8.651852506066e+02 
       2.631157740867e-03       1.067248477762e+03 
       3.312431342416e-03       1.308226148456e+03 
       4.170103991791e-03       1.588951091415e+03 
       5.249849885090e-03       1.911403769903e+03 
       6.609169428444e-03       2.268883333931e+03 
       8.320451344322e-03       2.648103910270e+03 
       1.047482763496e-02       3.024975569460e+03 
       1.318702669382e-02       3.361786684635e+03 
       1.660148300853e-02       3.607069471384e+03 
       2.090002397638e-02       3.703528159325e+03 
       2.631004181833e-02       3.611759068416e+03 
       3.302073882314e-02       3.353154104359e+03 
       3.997857390469e-02       3.070383582612e+03 
       4.505624412868e-02       2.894732901075e+03 
       4.898458424494e-02       2.777467051028e+03 
       5.237407051508e-02       2.685038566915e+03 
       5.547489633474e-02       2.603799422725e+03 
       5.840905198133e-02       2.527057365904e+03 
       6.124552709337e-02       2.451151269718e+03 
       6.402771549916e-02       2.374076510904e+03 
       6.678517941768e-02       2.294911555525e+03 
       6.953937086079e-02       2.213529883578e+03 
       7.230668837612e-02       2.130418031172e+03 
       7.510023307759e-02       2.046524693922e+03 
       7.793087712666e-02       1.963111927153e+03 
       8.080794478108e-02       1.881598109955e+03 
       8.373966334869e-02       1.803394513171e+03 
       8.673347132937e-02       1.729742851307e+03 
       8.979623451407e-02       1.661566326748e+03 
       9.293440078721e-02       1.599346248913e+03 
       9.615411291615e-02       1.543038153907e+03 
       9.946129180385e-02       1.492041020677e+03 
       1.028616985096e-01       1.445232454894e+03 
       1.063609807186e-01       1.401081237687e+03 
       1.099647076542e-01       1.357841510263e+03 
       1.136783963243e-01       1.313818567856e+03 
       1.175075312633e-01       1.267672946981e+03 
       1.214575794463e-01       1.218704927103e+03 
       1.255340017287e-01       1.167043622825e+03 
       1.297422619505e-01       1.113669145664e+03 
       1.340878347046e-01       1.060229771468e+03 
       1.385762126783e-01       1.008672876171e+03 
       1.432129144212e-01       9.607698635381e+02 
       1.480034933562e-01       9.176550086634e+02 
       1.529535488280e-01       8.795060792157e+02 
       1.580687399716e-01       8.454690122033e+02 
       1.633548031697e-01       8.138817686199e+02 
       1.688175738645e-01       7.827793436473e+02 
       1.744630134882e-01       7.505585553400e+02 
       1.802972422821e-01       7.165720580338e+02 
       1.863265787940e-01       6.813795053532e+02 
       1.925575868840e-01       6.464901917919e+02 
       1.989971311352e-01       6.136701198384e+02 
       2.056524416746e-01       5.841247954005e+02 
       2.125311895690e-01       5.579518463122e+02 
       2.196415741938e-01       5.341422912820e+02 
       2.269924242882e-01       5.111566371217e+02 
       2.345933148493e-01       4.877986840018e+02 
       2.424547025987e-01       4.638822212859e+02 
       2.505880835273e-01       4.402393530281e+02 
       2.590061770506e-01       4.180414988455e+02 
       2.677231426566e-01       3.979222051365e+02 
       2.767548367261e-01       3.795567907910e+02 
       2.861191196088e-01       3.620102449989e+02 
       2.958362262751e-01       3.445565750861e+02 
       3.059292182836e-01       3.272477289169e+02 
       3.164245409043e-01       3.107053426505e+02 
       3.273527177795e-01       2.953763543622e+02 
       3.387492276483e-01       2.810643950443e+02 
       3.506556252076e-01       2.672319249104e+02 
       3.631209939937e-01       2.536588572836e+02 
       3.762038578754e-01       2.406009931476e+02 
       3.899747370328e-01       2.282835350935e+02 
       4.045196272279e-01       2.165322960611e+02 
       4.199448306356e-01       2.050908352612e+02 
       4.363838138647e-01       1.940004197577e+02 
       4.540071914474e-01       1.833558341491e+02 
       4.730376817101e-01       1.730206616776e+02 
       4.937732629614e-01       1.628942406581e+02 
       5.166244259300e-01       1.529899573279e+02 
       5.421768504752e-01       1.431958565715e+02 
       5.713025723102e-01       1.334156774462e+02 
       6.053698061641e-01       1.235248044034e+02 
       6.466686844331e-01       1.133297246936e+02 
       6.993463923664e-01       1.025484103804e+02 
       7.716029533159e-01       9.076046980132e+01 
       8.806367900964e-01       7.745013526024e+01 
       1.057390334797e+00       6.272901388172e+01 
       1.320891793491e+00       4.894385514840e+01 
       1.662475815217e+00       3.790641860001e+01 
       2.092929272888e+00       2.909596607910e+01 
       2.634841841085e+00       2.194605302323e+01 
       3.317069349799e+00       1.614911672028e+01 
       4.175942897146e+00       1.153008543070e+01 
       5.257200631419e+00       7.960667058610e+00 
       6.618423469793e+00       5.312900121396e+00 
       8.332101492138e+00       3.436968867757e+00 
       1.048949430210e+01       2.165018255415e+00 
