# Matter power spectrum P(k) at redshift z=0.5
# for k=2.07457e-07 to 10.4092 h/Mpc,
# number of wavenumbers equal to 139
#    1:k (h/Mpc)              2:P (Mpc/h)^3        
       2.074569425048e-07       3.663165851874e-01 
       2.611728167724e-07       4.597551278082e-01 
       3.287970959047e-07       5.770275931217e-01 
       4.139310193585e-07       7.242134408984e-01 
       5.211082790003e-07       9.089428544013e-01 
       6.560364547298e-07       1.140792292530e+00 
       8.259009639227e-07       1.431780937357e+00 
       1.039747711108e-06       1.796993773078e+00 
       1.308964815368e-06       2.255363596325e+00 
       1.647889069211e-06       2.830652497152e+00 
       2.074569425048e-06       3.552683687536e+00 
       2.611728167724e-06       4.458887533087e+00 
       3.287970959047e-06       5.596241925034e+00 
       4.139310193585e-06       7.023707566488e+00 
       5.211082790003e-06       8.815284380477e+00 
       6.560364547298e-06       1.106384742235e+01 
       8.259009639227e-06       1.388596100818e+01 
       1.039747711108e-05       1.742792035699e+01 
       1.308964815368e-05       2.187333339472e+01 
       1.647889069211e-05       2.745263469600e+01 
       2.074569425048e-05       3.445502259385e+01 
       2.611728167724e-05       4.324343401713e+01 
       3.287970959047e-05       5.427332482910e+01 
       4.139310193585e-05       6.811621233703e+01 
       5.211082790003e-05       8.548916686878e+01 
       6.560364547298e-05       1.072917147606e+02 
       8.259009639227e-05       1.346519343415e+02 
       1.039747711108e-04       1.689838755356e+02 
       1.308964815368e-04       2.120587723676e+02 
       1.647889069211e-04       2.660927551423e+02 
       2.074569425048e-04       3.338537243973e+02 
       2.611728167724e-04       4.187894002702e+02 
       3.287970959047e-04       5.251768176655e+02 
       4.139310193585e-04       6.582901437136e+02 
       5.211082790003e-04       8.245784575438e+02 
       6.560364547298e-04       1.031838859508e+03 
       8.259009639227e-04       1.289363366740e+03 
       1.039747711108e-03       1.608020947841e+03 
       1.308964815368e-03       2.000179087511e+03 
       1.647889069211e-03       2.479284888603e+03 
       2.074569425048e-03       3.058945905234e+03 
       2.611728167724e-03       3.751328039190e+03 
       3.287970959047e-03       4.564590245483e+03 
       4.139310193585e-03       5.499232438735e+03 
       5.211082790003e-03       6.526962781760e+03 
       6.560364547298e-03       7.640876627970e+03 
       8.259009639227e-03       8.771711232124e+03 
       1.039747711108e-02       9.826998220289e+03 
       1.308964815368e-02       1.067579618456e+04 
       1.647889069188e-02       1.115435504444e+04 
       2.074569341091e-02       1.109782885109e+04 
       2.611686133551e-02       1.041930216688e+04 
       3.283835451781e-02       9.236240250892e+03 
       4.039091876664e-02       8.021540757026e+03 
       4.625794457845e-02       7.303637342851e+03 
       5.063148031920e-02       6.882997827878e+03 
       5.432084975854e-02       6.578641273208e+03 
       5.765492150523e-02       6.324985134976e+03 
       6.078661763500e-02       6.092907796244e+03 
       6.379950118866e-02       5.867565052859e+03 
       6.674483808754e-02       5.641264672502e+03 
       6.965689183042e-02       5.410645968564e+03 
       7.256014589416e-02       5.175317744839e+03 
       7.547307699459e-02       4.937027839003e+03 
       7.841028521096e-02       4.699019077979e+03 
       8.138377212932e-02       4.465439031361e+03 
       8.440374633344e-02       4.240764602896e+03 
       8.747915179659e-02       4.029247622123e+03 
       9.061802615810e-02       3.834408866552e+03 
       9.382775038684e-02       3.658613256724e+03 
       9.711522670512e-02       3.502756635591e+03 
       1.004870076971e-01       3.366090266927e+03 
       1.039493913163e-01       3.246206990009e+03 
       1.075084915163e-01       3.139215457874e+03 
       1.111702911081e-01       3.040130240703e+03 
       1.149406814532e-01       2.943489203253e+03 
       1.188254923020e-01       2.844168385123e+03 
       1.228305142315e-01       2.738290625401e+03 
       1.269615155641e-01       2.624040926930e+03 
       1.312242552729e-01       2.502148650501e+03 
       1.356244931236e-01       2.375826198491e+03 
       1.401679981415e-01       2.250083636307e+03 
       1.448605563827e-01       2.130536642229e+03 
       1.497079789208e-01       2.022003847575e+03 
       1.547161109211e-01       1.927267570733e+03 
       1.598908426440e-01       1.846327667825e+03 
       1.652381232052e-01       1.776363723398e+03 
       1.707639779069e-01       1.712489514372e+03 
       1.764745299486e-01       1.649217158835e+03 
       1.823760273226e-01       1.582287695754e+03 
       1.884748757026e-01       1.510220341644e+03 
       1.947776781525e-01       1.434831286815e+03 
       2.012912825158e-01       1.360329034387e+03 
       2.080228374090e-01       1.291321847613e+03 
       2.149798578448e-01       1.230689981301e+03 
       2.221703016619e-01       1.178347695775e+03 
       2.296026581618e-01       1.131473210171e+03 
       2.372860506631e-01       1.086119814587e+03 
       2.452303551053e-01       1.039426208103e+03 
       2.534463374062e-01       9.911485294649e+02 
       2.619458130332e-01       9.434655702762e+02 
       2.707418332501e-01       8.991683134767e+02 
       2.798489038293e-01       8.595877415455e+02 
       2.892832437712e-01       8.237927329005e+02 
       2.990630939224e-01       7.895811745960e+02 
       3.092090885339e-01       7.553890965292e+02 
       3.197447070896e-01       7.214432906985e+02 
       3.306968296352e-01       6.891290765019e+02 
       3.420964270689e-01       6.593306220630e+02 
       3.539794295071e-01       6.315522522793e+02 
       3.663878326012e-01       6.046770899888e+02 
       3.793711262199e-01       5.783029700197e+02 
       3.929881665186e-01       5.529469312905e+02 
       4.073096681575e-01       5.290055589360e+02 
       4.224215802629e-01       5.061198302733e+02 
       4.384297483936e-01       4.838188288636e+02 
       4.554664924797e-01       4.621672163166e+02 
       4.737001163626e-01       4.413009834267e+02 
       4.933490409422e-01       4.209674813894e+02 
       5.147034867451e-01       4.009719107998e+02 
       5.381599851063e-01       3.812915593019e+02 
       5.642787196677e-01       3.617074642956e+02 
       5.938837385229e-01       3.419953139809e+02 
       6.282488405247e-01       3.218712012745e+02 
       6.694672723324e-01       3.008898160020e+02 
       7.212468627778e-01       2.783806722704e+02 
       7.907517567126e-01       2.532556770325e+02 
       8.929002360006e-01       2.238286020264e+02 
       1.056908069090e+00       1.885339687617e+02 
       1.311410754122e+00       1.503677823414e+02 
       1.649754564902e+00       1.162012635714e+02 
       2.076901691751e+00       8.736858063694e+01 
       2.614664277441e+00       6.352225289757e+01 
       3.291667302168e+00       4.450629479724e+01 
       4.143963613872e+00       3.007705018605e+01 
       5.216941099054e+00       1.968763530986e+01 
       6.567739721432e+00       1.254969191145e+01 
       8.268294433361e+00       7.831615198214e+00 
       1.040916597435e+01       4.807167381785e+00 
