# Matter power spectrum P(k) at redshift z=2
# for k=2.02091e-07 to 10.1395 h/Mpc,
# number of wavenumbers equal to 139
#    1:k (h/Mpc)              2:P (Mpc/h)^3        
       2.020911109706e-07       3.046648850920e-01 
       2.544176350986e-07       3.789068015281e-01 
       3.202928260342e-07       4.712402747811e-01 
       4.032247779098e-07       5.860739251659e-01 
       5.076299195757e-07       7.288906821154e-01 
       6.390682055408e-07       9.065095766691e-01 
       8.045392038250e-07       1.127411326313e+00 
       1.012854848480e-06       1.402143260639e+00 
       1.275108707210e-06       1.743822919698e+00 
       1.605266754307e-06       2.168764370209e+00 
       2.020911109706e-06       2.697257139605e+00 
       2.544176350986e-06       3.354534957970e+00 
       3.202928260342e-06       4.171980556062e+00 
       4.032247779098e-06       5.188624024838e+00 
       5.076299195757e-06       6.453006251170e+00 
       6.390682055408e-06       8.025496344526e+00 
       8.045392038250e-06       9.981173591847e+00 
       1.012854848480e-05       1.241341130340e+01 
       1.275108707210e-05       1.543833323748e+01 
       1.605266754307e-05       1.920035448450e+01 
       2.020911109706e-05       2.387906963789e+01 
       2.544176350986e-05       2.969781369264e+01 
       3.202928260342e-05       3.693429767906e+01 
       4.032247779098e-05       4.593381352632e+01 
       5.076299195757e-05       5.712561247278e+01 
       6.390682055408e-05       7.104318743404e+01 
       8.045392038250e-05       8.834932680589e+01 
       1.012854848480e-04       1.098669377956e+02 
       1.275108707210e-04       1.366167248521e+02 
       1.605266754307e-04       1.698627735281e+02 
       2.020911109706e-04       2.111667788317e+02 
       2.544176350986e-04       2.624507905263e+02 
       3.202928260342e-04       3.260664649916e+02 
       4.032247779098e-04       4.048652727295e+02 
       5.076299195757e-04       5.022583651339e+02 
       6.390682055408e-04       6.222473240564e+02 
       8.045392038250e-04       7.694009893524e+02 
       1.012854848480e-03       9.487542631390e+02 
       1.275108707210e-03       1.165605277715e+03 
       1.605266754307e-03       1.425139049971e+03 
       2.020911109706e-03       1.731689777598e+03 
       2.544176350986e-03       2.087542405460e+03 
       3.202928260342e-03       2.491449109482e+03 
       4.032247779098e-03       2.936792855805e+03 
       5.076299195757e-03       3.409545146649e+03 
       6.390682055408e-03       3.883526918132e+03 
       8.045392038250e-03       4.329649486595e+03 
       1.012854848480e-02       4.701595954488e+03 
       1.275108707210e-02       4.946649862680e+03 
       1.605266754306e-02       5.009520259552e+03 
       2.020911100804e-02       4.845453448109e+03 
       2.544168470082e-02       4.444420851884e+03 
       3.201694751664e-02       3.862630485524e+03 
       3.986443529315e-02       3.253478368914e+03 
       4.670451177309e-02       2.846834194800e+03 
       5.163032283788e-02       2.612593788769e+03 
       5.565608116266e-02       2.445182490540e+03 
       5.923351838794e-02       2.307750395768e+03 
       6.256095386844e-02       2.185863200218e+03 
       6.574208115307e-02       2.072926678996e+03 
       6.883853546104e-02       1.965808186177e+03 
       7.189053848515e-02       1.863169082087e+03 
       7.492629058243e-02       1.764682589804e+03 
       7.796674163349e-02       1.670593345009e+03 
       8.102822636274e-02       1.581426084827e+03 
       8.412401852688e-02       1.497772229683e+03 
       8.726529675958e-02       1.420126968118e+03 
       9.046177091635e-02       1.348767411751e+03 
       9.372210275450e-02       1.283671148955e+03 
       9.705419679302e-02       1.224476737342e+03 
       1.004654062728e-01       1.170488177443e+03 
       1.039626818487e-01       1.120725641400e+03 
       1.075526805849e-01       1.074021996948e+03 
       1.112418467614e-01       1.029160328550e+03 
       1.150364722466e-01       9.850383918231e+02 
       1.189427417991e-01       9.408359501480e+02 
       1.229667671181e-01       8.961506534155e+02 
       1.271146124432e-01       8.510651640704e+02 
       1.313923138316e-01       8.061173027523e+02 
       1.358058937880e-01       7.621663389577e+02 
       1.403613726273e-01       7.201787568007e+02 
       1.450647777509e-01       6.809824309190e+02 
       1.499221518900e-01       6.450526841172e+02 
       1.549395612878e-01       6.123884780547e+02 
       1.601231047429e-01       5.825173977832e+02 
       1.654789244005e-01       5.546362475411e+02 
       1.710132191622e-01       5.278564730965e+02 
       1.767322615691e-01       5.014828270069e+02 
       1.826424190045e-01       4.752266932300e+02 
       1.887501800578e-01       4.492637373886e+02 
       1.950621868946e-01       4.241033117813e+02 
       2.015852744875e-01       4.003238158030e+02 
       2.083265175958e-01       3.782967349943e+02 
       2.152932864349e-01       3.580294065711e+02 
       2.224933120690e-01       3.391967123491e+02 
       2.299347627038e-01       3.213361787845e+02 
       2.376263322616e-01       3.040937187111e+02 
       2.455773429163e-01       2.873777394051e+02 
       2.537978636679e-01       2.713353031122e+02 
       2.622988475813e-01       2.561829185260e+02 
       2.710922910393e-01       2.420226657184e+02 
       2.801914193230e-01       2.287738818424e+02 
       2.896109041021e-01       2.162518653018e+02 
       2.993671201027e-01       2.043088033774e+02 
       3.094784504622e-01       1.929121114174e+02 
       3.199656532844e-01       1.821060223788e+02 
       3.308523059870e-01       1.719159618288e+02 
       3.421653496141e-01       1.622993375448e+02 
       3.539357630461e-01       1.531800334096e+02 
       3.661994079685e-01       1.445082003571e+02 
       3.789981011098e-01       1.362718774249e+02 
       3.923809930320e-01       1.284610556058e+02 
       4.064063665371e-01       1.210437058803e+02 
       4.211440188543e-01       1.139812930965e+02 
       4.366784707961e-01       1.072481954072e+02 
       4.531133712913e-01       1.008244562425e+02 
       4.705776694942e-01       9.468300959310e+01 
       4.892344684429e-01       8.879419464325e+01 
       5.092940669971e-01       8.313117906909e+01 
       5.310337645247e-01       7.766476373293e+01 
       5.548290104806e-01       7.236139188627e+01 
       5.812044447596e-01       6.718392278765e+01 
       6.109216464258e-01       6.208767943484e+01 
       6.451387839776e-01       5.701728790998e+01 
       6.857210760057e-01       5.189878576511e+01 
       7.358923095227e-01       4.662875184538e+01 
       8.017134334311e-01       4.105505471804e+01 
       8.955818376211e-01       3.496831343053e+01 
       1.043042875781e+00       2.823733272140e+01 
       1.279325558899e+00       2.143883120512e+01 
       1.607064091838e+00       1.592221372968e+01 
       2.023098387776e+00       1.183958933248e+01 
       2.546929647395e+00       8.772057845806e+00 
       3.206394454956e+00       6.429171117506e+00 
       4.036611459579e+00       4.631775761920e+00 
       5.081792744004e+00       3.263815529323e+00 
       6.397598022898e+00       2.241896137622e+00 
       8.054098725470e+00       1.498293895322e+00 
       1.013950955459e+01       9.738172044358e-01 
