# Matter power spectrum P(k) at redshift z=1.5
# for k=1.78602e-07 to 11.2828 h/Mpc,
# number of wavenumbers equal to 140
#    1:k (h/Mpc)              2:P (Mpc/h)^3        
       1.786018667669e-07       5.647487476301e-01 
       2.248464286667e-07       7.064562570069e-01 
       2.830648827997e-07       8.837212030016e-01 
       3.563575741431e-07       1.105465704521e+00 
       4.486276057741e-07       1.382850629172e+00 
       5.647886933414e-07       1.729837343269e+00 
       7.110268383415e-07       2.163890414321e+00 
       8.951297552557e-07       2.706856636107e+00 
       1.126901595745e-06       3.386064616585e+00 
       1.418685055474e-06       4.235700270557e+00 
       1.786018667669e-06       5.298527438324e+00 
       2.248464286667e-06       6.628040222729e+00 
       2.830648827997e-06       8.291155346591e+00 
       3.563575741431e-06       1.037157998406e+01 
       4.486276057741e-06       1.297402446529e+01 
       5.647886933414e-06       1.622947167779e+01 
       7.110268383415e-06       2.030176793059e+01 
       8.951297552557e-06       2.539586616414e+01 
       1.126901595745e-05       3.176813467879e+01 
       1.418685055474e-05       3.973924685451e+01 
       1.786018667669e-05       4.971029387233e+01 
       2.248464286667e-05       6.218291808643e+01 
       2.830648827997e-05       7.778445395825e+01 
       3.563575741431e-05       9.729928957833e+01 
       4.486276057741e-05       1.217079237102e+02 
       5.647886933414e-05       1.522354794919e+02 
       7.110268383415e-05       1.904117131979e+02 
       8.951297552557e-05       2.381447454001e+02 
       1.126901595745e-04       2.978106753552e+02 
       1.418685055474e-04       3.723605827697e+02 
       1.786018667669e-04       4.654445496461e+02 
       2.248464286667e-04       5.815481653954e+02 
       2.830648827997e-04       7.261288765225e+02 
       3.563575741431e-04       9.057256886203e+02 
       4.486276057741e-04       1.127995997149e+03 
       5.647886933414e-04       1.401613997410e+03 
       7.110268383415e-04       1.735963810658e+03 
       8.951297552557e-04       2.140589326220e+03 
       1.126901595745e-03       2.624346857418e+03 
       1.418685055474e-03       3.193957682472e+03 
       1.786018667669e-03       3.851488126640e+03 
       2.248464286667e-03       4.591170803783e+03 
       2.830648827997e-03       5.396146411544e+03 
       3.563575741431e-03       6.235405918842e+03 
       4.486276057741e-03       7.061729694451e+03 
       5.647886933414e-03       7.811974593451e+03 
       7.110268383415e-03       8.407129606007e+03 
       8.951297552557e-03       8.770753007905e+03 
       1.126901595745e-02       8.820601382863e+03 
       1.418685055474e-02       8.491735122159e+03 
       1.786018667616e-02       7.753740464070e+03 
       2.248464124675e-02       6.644008556882e+03 
       2.830579069245e-02       5.309765023732e+03 
       3.557507527998e-02       4.021448722918e+03 
       4.355815398663e-02       3.122525186389e+03 
       4.960905381128e-02       2.696942482985e+03 
       5.417332475427e-02       2.458212323650e+03 
       5.805332532519e-02       2.283227889082e+03 
       6.157421771562e-02       2.134106311646e+03 
       6.488957413572e-02       1.996476164760e+03 
       6.808427410636e-02       1.864632895230e+03 
       7.121082175127e-02       1.736847487830e+03 
       7.430452936956e-02       1.613421700429e+03 
       7.739075744067e-02       1.495670617338e+03 
       8.048872506395e-02       1.385285464845e+03 
       8.361367344930e-02       1.283894225483e+03 
       8.677817003495e-02       1.192756081876e+03 
       8.999293340854e-02       1.112564829028e+03 
       9.326737610202e-02       1.043345547353e+03 
       9.660997356618e-02       9.844311392598e+02 
       1.000285218256e-01       9.345061339959e+02 
       1.035303214095e-01       8.917122567991e+02 
       1.071223109979e-01       8.538171169040e+02 
       1.108111658686e-01       8.184495868950e+02 
       1.146033711350e-01       7.833952407361e+02 
       1.185052765773e-01       7.469198928903e+02 
       1.225231378247e-01       7.080584743302e+02 
       1.266631473140e-01       6.667849617166e+02 
       1.309314575714e-01       6.239902867725e+02 
       1.353341987766e-01       5.812433595577e+02 
       1.398774921830e-01       5.403828889701e+02 
       1.445674607042e-01       5.030490753755e+02 
       1.494102378121e-01       4.702837546962e+02 
       1.544119757795e-01       4.422988249251e+02 
       1.595788542332e-01       4.184609014407e+02 
       1.649170899384e-01       3.974922448830e+02 
       1.704329487099e-01       3.778498482021e+02 
       1.761327603269e-01       3.581957051827e+02 
       1.820229373176e-01       3.378115200850e+02 
       1.881099984712e-01       3.167861011758e+02 
       1.944005979338e-01       2.958739357977e+02 
       2.009015607482e-01       2.760812038554e+02 
       2.076199257200e-01       2.581818146572e+02 
       2.145629965266e-01       2.423948237041e+02 
       2.217384020613e-01       2.283574473914e+02 
       2.291541671109e-01       2.153787628262e+02 
       2.368187946371e-01       2.028275757338e+02 
       2.447413611742e-01       1.904382413567e+02 
       2.529316271912e-01       1.783609418992e+02 
       2.614001647344e-01       1.669488065682e+02 
       2.701585052804e-01       1.564564737669e+02 
       2.792193115588e-01       1.468702118606e+02 
       2.885965781927e-01       1.379657797156e+02 
       2.983058674474e-01       1.295087160802e+02 
       3.083645882922e-01       1.214139874137e+02 
       3.187923295333e-01       1.137416746791e+02 
       3.296112612161e-01       1.065687916055e+02 
       3.408466231746e-01       9.988513133305e+01 
       3.525273260543e-01       9.360735323078e+01 
       3.646866991396e-01       8.766447833478e+01 
       3.773634320841e-01       8.204239118407e+01 
       3.906027760312e-01       7.674912803657e+01 
       4.044580965778e-01       7.176771190722e+01 
       4.189929113252e-01       6.706044929210e+01 
       4.342836062246e-01       6.260073506899e+01 
       4.504231208704e-01       5.837696645665e+01 
       4.675260464552e-01       5.437342481816e+01 
       4.857358328920e-01       5.056757439426e+01 
       5.052352309636e-01       4.694039205999e+01 
       5.262618507361e-01       4.347480731623e+01 
       5.491321003261e-01       4.015011183209e+01 
       5.742794174903e-01       3.694510274628e+01 
       6.023180455764e-01       3.383550198383e+01 
       6.341550139855e-01       3.079326504811e+01 
       6.711990026576e-01       2.778326631359e+01 
       7.157783939467e-01       2.476076829258e+01 
       7.720465403617e-01       2.166487498513e+01 
       8.480888652190e-01       1.841412996301e+01 
       9.607984642046e-01       1.492212420440e+01 
       1.142527045340e+00       1.126667716852e+01 
       1.421186365072e+00       8.049465179827e+00 
       1.788218112202e+00       5.757374647309e+00 
       2.251222090041e+00       4.174561310913e+00 
       2.834120673308e+00       3.050864072872e+00 
       3.567946535712e+00       2.230938654211e+00 
       4.491778561731e+00       1.620279392854e+00 
       5.654814175516e+00       1.160714263293e+00 
       7.118989264531e+00       8.153409296757e-01 
       8.962276491407e+00       5.591889853308e-01 
       1.128283762256e+01       3.735560875826e-01 
