# Matter power spectrum P(k) at redshift z=1
# for k=2.02933e-07 to 10.1827 h/Mpc,
# number of wavenumbers equal to 139
#    1:k (h/Mpc)              2:P (Mpc/h)^3        
       2.029332956955e-07       5.907133871086e-01 
       2.554778828502e-07       7.362864582047e-01 
       3.216275988715e-07       9.177339809951e-01 
       4.049051573537e-07       1.143896713326e+00 
       5.097453919591e-07       1.425794093874e+00 
       6.417314274823e-07       1.777161147832e+00 
       8.078920016044e-07       2.215117704385e+00 
       1.017075770805e-06       2.761002533411e+00 
       1.280422533587e-06       3.441413042142e+00 
       1.611956465366e-06       4.289501188712e+00 
       2.029332956955e-06       5.346588750383e+00 
       2.554778828502e-06       6.664180643572e+00 
       3.216275988715e-06       8.306474382902e+00 
       4.049051573537e-06       1.035348792412e+01 
       5.097453919591e-06       1.290495825450e+01 
       6.417314274823e-06       1.608520060506e+01 
       8.078920016044e-06       2.004916488091e+01 
       1.017075770805e-05       2.498998409793e+01 
       1.280422533587e-05       3.114838200219e+01 
       1.611956465366e-05       3.882439702541e+01 
       2.029332956955e-05       4.839199146640e+01 
       2.554778828502e-05       6.031725296877e+01 
       3.216275988715e-05       7.518106590714e+01 
       4.049051573537e-05       9.370733902271e+01 
       5.097453919591e-05       1.167981285792e+02 
       6.417314274823e-05       1.455772975082e+02 
       8.078920016044e-05       1.814446980828e+02 
       1.017075770805e-04       2.261432449626e+02 
       1.280422533587e-04       2.818416132564e+02 
       1.611956465366e-04       3.512355586285e+02 
       2.029332956955e-04       4.376708207172e+02 
       2.554778828502e-04       5.452898881783e+02 
       3.216275988715e-04       6.792030131435e+02 
       4.049051573537e-04       8.456800438108e+02 
       5.097453919591e-04       1.052353411688e+03 
       6.417314274823e-04       1.308414636170e+03 
       8.078920016044e-04       1.624778981645e+03 
       1.017075770805e-03       2.014181700102e+03 
       1.280422533587e-03       2.491124764818e+03 
       1.611956465366e-03       3.071478320316e+03 
       2.029332956955e-03       3.771471046705e+03 
       2.554778828502e-03       4.605932992076e+03 
       3.216275988715e-03       5.585461589934e+03 
       4.049051573537e-03       6.712206730747e+03 
       5.097453919591e-03       7.973734042138e+03 
       6.417314274823e-03       9.334895664897e+03 
       8.078920016044e-03       1.072774951859e+04 
       1.017075770805e-02       1.204007384835e+04 
       1.280422533587e-02       1.310605918445e+04 
       1.611956465334e-02       1.370943066706e+04 
       2.029332848636e-02       1.362249978603e+04 
       2.554728374106e-02       1.271500790883e+04 
       3.211596170940e-02       1.114011863989e+04 
       3.941920660420e-02       9.561416280391e+03 
       4.502368913915e-02       8.668569981617e+03 
       4.922494863977e-02       8.166308224226e+03 
       5.278220575551e-02       7.818984086354e+03 
       5.600332130032e-02       7.539832181103e+03 
       5.903252070750e-02       7.288859033309e+03 
       6.194904727393e-02       7.044515749001e+03 
       6.480170928103e-02       6.794637582818e+03 
       6.762322611053e-02       6.532946841821e+03 
       7.043703440589e-02       6.257450205644e+03 
       7.326085646618e-02       5.969508843384e+03 
       7.610872026480e-02       5.673109349049e+03 
       7.899217418603e-02       5.374142387543e+03 
       8.192105392104e-02       5.079627001295e+03 
       8.490398627904e-02       4.796889452653e+03 
       8.794873121088e-02       4.532745266381e+03 
       9.106242038478e-02       4.292746614309e+03 
       9.425172734680e-02       4.080553728277e+03 
       9.752299107518e-02       3.897475103412e+03 
       1.008823069451e-01       3.742207270423e+03 
       1.043355943764e-01       3.610807102116e+03 
       1.078886474686e-01       3.496946018601e+03 
       1.115471730284e-01       3.392510890395e+03 
       1.153168191562e-01       3.288604438028e+03 
       1.192031967432e-01       3.176919524390e+03 
       1.232118956849e-01       3.051314603817e+03 
       1.273484972577e-01       2.909240168740e+03 
       1.316185838635e-01       2.752559106704e+03 
       1.360277471897e-01       2.587365715608e+03 
       1.405815957325e-01       2.422678269689e+03 
       1.452857625648e-01       2.268267115662e+03 
       1.501459141893e-01       2.132196734457e+03 
       1.551677612964e-01       2.018745889587e+03 
       1.603570722239e-01       1.927228298394e+03 
       1.657196899112e-01       1.852030160743e+03 
       1.712615531290e-01       1.784023256111e+03 
       1.769887227645e-01       1.713287864946e+03 
       1.829074139487e-01       1.632559908129e+03 
       1.890240348251e-01       1.540109725477e+03 
       1.953452327978e-01       1.440502910106e+03 
       2.018779491560e-01       1.342505342516e+03 
       2.086294830745e-01       1.254980565691e+03 
       2.156075661377e-01       1.182801873254e+03 
       2.228204487554e-01       1.124728379896e+03 
       2.302770001405e-01       1.074226437821e+03 
       2.379868239373e-01       1.023037191296e+03 
       2.459603921438e-01       9.659044167260e+02 
       2.542092007186e-01       9.036184293999e+02 
       2.627459512396e-01       8.420101967120e+02 
       2.715847642867e-01       7.874251098797e+02 
       2.807414319386e-01       7.420847313843e+02 
       2.902337190745e-01       7.027968238304e+02 
       3.000817262665e-01       6.639451763685e+02 
       3.103083312543e-01       6.224068337376e+02 
       3.209397317908e-01       5.799983164484e+02 
       3.320061207323e-01       5.409583578549e+02 
       3.435425357057e-01       5.071719207614e+02 
       3.555899421777e-01       4.764040448488e+02 
       3.681966329094e-01       4.454170678644e+02 
       3.814200628551e-01       4.140123062472e+02 
       3.953292935375e-01       3.845983146229e+02 
       4.100083066505e-01       3.581178882232e+02 
       4.255605836865e-01       3.327915706529e+02 
       4.421155736779e-01       3.075042529715e+02 
       4.598380532444e-01       2.834272229336e+02 
       4.789420542617e-01       2.609512024401e+02 
       4.997122607842e-01       2.389254579633e+02 
       5.225381204544e-01       2.174935698293e+02 
       5.479706288500e-01       1.969151915120e+02 
       5.768217889842e-01       1.765518287483e+02 
       6.103495856411e-01       1.565160639405e+02 
       6.506269849852e-01       1.363712631364e+02 
       7.013381471643e-01       1.158464171221e+02 
       7.696270527871e-01       9.445492595192e+01 
       8.703953153526e-01       7.183090312816e+01 
       1.032531734518e+00       4.881016420667e+01 
       1.282739033831e+00       2.959374942466e+01 
       1.613855049170e+00       1.724288271620e+01 
       2.031710338607e+00       9.933292129489e+00 
       2.557771745403e+00       5.671495899129e+00 
       3.220043847848e+00       3.212200998306e+00 
       4.053795027148e+00       1.806081431243e+00 
       5.103425573881e+00       1.008765913099e+00 
       6.424832142159e+00       5.600364330963e-01 
       8.088384450276e+00       3.091995618207e-01 
       1.018267272481e+01       1.698456759014e-01 
