# Matter power spectrum P(k) at redshift z=0
# for k=2.17097e-07 to 10.8958 h/Mpc,
# number of wavenumbers equal to 139
#    1:k (h/Mpc)              2:P (Mpc/h)^3        
       2.170968330917e-07       1.246908668654e+00 
       2.733087199991e-07       1.552689599812e+00 
       3.440752928718e-07       1.933457560590e+00 
       4.331651297669e-07       2.407601711153e+00 
       5.453225893666e-07       2.998020807101e+00 
       6.865204653790e-07       3.733229092714e+00 
       8.642780595824e-07       4.648733392974e+00 
       1.088061612064e-06       5.788747910542e+00 
       1.369788413026e-06       7.208329542273e+00 
       1.724461441939e-06       8.976036838866e+00 
       2.170968330917e-06       1.117724101459e+01 
       2.733087199991e-06       1.391824890621e+01 
       3.440752928718e-06       1.733143697777e+01 
       4.331651297669e-06       2.158164428375e+01 
       5.453225893666e-06       2.687413306345e+01 
       6.865204653790e-06       3.346450128362e+01 
       8.642780595824e-06       4.167102557879e+01 
       1.088061612064e-05       5.189003012932e+01 
       1.369788413026e-05       6.461502264215e+01 
       1.724461441939e-05       8.046051944758e+01 
       2.170968330917e-05       1.001917061215e+02 
       2.733087199991e-05       1.247613577342e+02 
       3.440752928718e-05       1.553557853451e+02 
       4.331651297669e-05       1.934519953054e+02 
       5.453225893666e-05       2.408887580910e+02 
       6.865204653790e-05       2.999548936730e+02 
       8.642780595824e-05       3.734987916011e+02 
       1.088061612064e-04       4.650639762461e+02 
       1.369788413026e-04       5.790563361647e+02 
       1.724461441939e-04       7.209493145119e+02 
       2.170968330917e-04       8.975336146542e+02 
       2.733087199991e-04       1.117217316536e+03 
       3.440752928718e-04       1.390380021839e+03 
       4.331651297669e-04       1.729780061540e+03 
       5.453225893666e-04       2.151006760047e+03 
       6.865204653790e-04       2.672960348940e+03 
       8.642780595824e-04       3.318324704098e+03 
       1.088061612064e-03       4.113946814851e+03 
       1.369788413026e-03       5.090926886444e+03 
       1.724461441939e-03       6.284142929777e+03 
       2.170968330917e-03       7.730887601070e+03 
       2.733087199991e-03       9.468026036868e+03 
       3.440752928718e-03       1.152715779302e+04 
       4.331651297669e-03       1.384722062393e+04 
       5.453225893666e-03       1.654107725655e+04 
       6.865204653790e-03       1.950405493694e+04 
       8.642780595824e-03       2.262073419742e+04 
       1.088061612064e-02       2.568860058129e+04 
       1.369788413026e-02       2.839838959567e+04 
       1.724461441721e-02       3.033802553842e+04 
       2.170967863183e-02       3.106100445846e+04 
       2.732936368546e-02       3.027577136664e+04 
       3.430407534050e-02       2.818563772399e+04 
       4.156606881398e-02       2.596971619169e+04 
       4.687580065432e-02       2.466910622880e+04 
       5.097683339559e-02       2.386161754053e+04 
       5.451200872412e-02       2.326581765718e+04 
       5.774445063285e-02       2.276581416501e+04 
       6.080218846016e-02       2.230236059896e+04 
       6.375751977250e-02       2.184060870827e+04 
       6.665586976192e-02       2.135921803882e+04 
       6.952815861433e-02       2.084616673775e+04 
       7.239680854759e-02       2.029694584379e+04 
       7.527895002468e-02       1.971356562137e+04 
       7.818826224281e-02       1.910368676409e+04 
       8.113609231862e-02       1.847955885449e+04 
       8.413216829923e-02       1.785664517260e+04 
       8.718507108553e-02       1.725194276374e+04 
       9.030255679296e-02       1.668209974974e+04 
       9.349178275894e-02       1.616147587430e+04 
       9.675946940634e-02       1.570030914015e+04 
       1.001120181567e-01       1.530313913119e+04 
       1.035555984534e-01       1.496763951299e+04 
       1.070962125854e-01       1.468404518096e+04 
       1.107397442548e-01       1.443542665753e+04 
       1.144919950648e-01       1.419912763917e+04 
       1.183587119500e-01       1.394963501068e+04 
       1.223456078091e-01       1.366287665125e+04 
       1.264583770902e-01       1.332139738264e+04 
       1.307027077421e-01       1.291918537590e+04 
       1.350842907193e-01       1.246447862598e+04 
       1.396088280848e-01       1.197910011625e+04 
       1.442820406562e-01       1.149387896635e+04 
       1.491096760868e-01       1.104112126249e+04 
       1.540975182304e-01       1.064615246157e+04 
       1.592513986201e-01       1.032018997699e+04 
       1.645772108726e-01       1.005640033237e+04 
       1.700809288233e-01       9.830536620097e+03 
       1.757686291860e-01       9.607123738026e+03 
       1.816465195353e-01       9.350945386899e+03 
       1.877209724121e-01       9.040807616077e+03 
       1.939985663765e-01       8.679406873112e+03 
       2.004861348692e-01       8.293006288184e+03 
       2.071908238163e-01       7.919556136109e+03 
       2.141201590224e-01       7.590871256437e+03 
       2.212821245625e-01       7.317868389395e+03 
       2.286852536258e-01       7.085937279731e+03 
       2.363387335908e-01       6.863109966672e+03 
       2.442525275690e-01       6.618358104583e+03 
       2.524375152541e-01       6.340570386292e+03 
       2.609056567195e-01       6.044946755200e+03 
       2.696701838681e-01       5.760700711663e+03 
       2.787458256434e-01       5.509097902488e+03 
       2.881490749753e-01       5.288862430185e+03 
       2.978985079280e-01       5.079758195156e+03 
       3.080151688786e-01       4.861354438300e+03 
       3.185230401389e-01       4.631021546366e+03 
       3.294496207645e-01       4.403838761539e+03 
       3.408266481530e-01       4.194785176598e+03 
       3.526910086315e-01       4.003227446387e+03 
       3.650859014248e-01       3.816569549528e+03 
       3.780623471576e-01       3.627314796518e+03 
       3.916811721586e-01       3.441179859076e+03 
       4.060156612646e-01       3.266111091612e+03 
       4.211551680848e-01       3.100224714764e+03 
       4.372101264669e-01       2.937186127386e+03 
       4.543191629574e-01       2.777493358261e+03 
       4.726594473947e-01       2.624825422152e+03 
       4.924621930670e-01       2.477441753129e+03 
       5.140366455017e-01       2.333141630239e+03 
       5.378086553858e-01       2.193059256158e+03 
       5.643855395204e-01       2.056017883325e+03 
       5.946710433474e-01       1.920701554410e+03 
       6.300821549900e-01       1.785899619317e+03 
       6.729886259473e-01       1.649073846213e+03 
       7.276774703200e-01       1.506355213733e+03 
       8.026165495728e-01       1.350805214892e+03 
       9.155642868103e-01       1.169990288805e+03 
       1.098626792491e+00       9.493472899271e+02 
       1.372071845023e+00       7.083632707587e+02 
       1.726868465716e+00       4.969923935246e+02 
       2.173994391209e+00       3.336412707566e+02 
       2.736896777767e+00       2.168928416419e+02 
       3.445548902987e+00       1.378455490478e+02 
       4.337689071550e+00       8.625830430303e+01 
       5.460827000636e+00       5.341220195611e+01 
       6.874773880513e+00       3.283939543058e+01 
       8.654827538516e+00       2.009381103600e+01 
       1.089578232293e+01       1.225485265898e+01 
