# Matter power spectrum P(k) at redshift z=2
# for k=2.25597e-07 to 11.3224 h/Mpc,
# number of wavenumbers equal to 139
#    1:k (h/Mpc)              2:P (Mpc/h)^3        
       2.255969486845e-07       1.114380255098e-01 
       2.840097315221e-07       1.398438617457e-01 
       3.575470682100e-07       1.754904178087e-01 
       4.501250900821e-07       2.202233716735e-01 
       5.666739143905e-07       2.763588690937e-01 
       7.134001910271e-07       3.468034473133e-01 
       8.981176292628e-07       4.352045270517e-01 
       1.130663106259e-06       5.461392655086e-01 
       1.423420516648e-06       6.853515479972e-01 
       1.791980260077e-06       8.600493898321e-01 
       2.255969486845e-06       1.079278144332e+00 
       2.840097315221e-06       1.354388843085e+00 
       3.575470682100e-06       1.699625912708e+00 
       4.501250900821e-06       2.132864698110e+00 
       5.666739143905e-06       2.676536969573e+00 
       7.134001910271e-06       3.358792322701e+00 
       8.981176292628e-06       4.214955578186e+00 
       1.130663106259e-05       5.289355588327e+00 
       1.423420516648e-05       6.637620033497e+00 
       1.791980260077e-05       8.329554827582e+00 
       2.255969486845e-05       1.045275678890e+01 
       2.840097315221e-05       1.311714582929e+01 
       3.575470682100e-05       1.646064966103e+01 
       4.501250900821e-05       2.065633213575e+01 
       5.666739143905e-05       2.592132779908e+01 
       7.134001910271e-05       3.252803249719e+01 
       8.981176292628e-05       4.081810395705e+01 
       1.130663106259e-04       5.121994700818e+01 
       1.423420516648e-04       6.427048956579e+01 
       1.791980260077e-04       8.064218220696e+01 
       2.255969486845e-04       1.011762403482e+02 
       2.840097315221e-04       1.269231214892e+02 
       3.575470682100e-04       1.591909598808e+02 
       4.501250900821e-04       1.996019582947e+02 
       5.666739143905e-04       2.501553009336e+02 
       7.134001910271e-04       3.132928567083e+02 
       8.981176292628e-04       3.919611195551e+02 
       1.130663106259e-03       4.896602949590e+02 
       1.423420516648e-03       6.104674627485e+02 
       1.791980260077e-03       7.590031629169e+02 
       2.255969486845e-03       9.402680164825e+02 
       2.840097315221e-03       1.159265186935e+03 
       3.575470682100e-03       1.420371326841e+03 
       4.501250900821e-03       1.726336615080e+03 
       5.666739143905e-03       2.072712435732e+03 
       7.134001910271e-03       2.460066262050e+03 
       8.981176292628e-03       2.872088377161e+03 
       1.130663106259e-02       3.284286958200e+03 
       1.423420516648e-02       3.658718714826e+03 
       1.791980259836e-02       3.944044286554e+03 
       2.255968977674e-02       4.082995857274e+03 
       2.839935139006e-02       4.033923229943e+03 
       3.564460217390e-02       3.809259870511e+03 
       4.316904578222e-02       3.536380700858e+03 
       4.866423687340e-02       3.352967854025e+03 
       5.291282822981e-02       3.222996833782e+03 
       5.657729830003e-02       3.116297261743e+03 
       5.992901641417e-02       3.020419750886e+03 
       6.310019094098e-02       2.929338135339e+03 
       6.616554693769e-02       2.839853769118e+03 
       6.917206587728e-02       2.750302097440e+03 
       7.215174361928e-02       2.659995292880e+03 
       7.512779201901e-02       2.568931607874e+03 
       7.811795096514e-02       2.477607567580e+03 
       8.113639050350e-02       2.386865435221e+03 
       8.419486793405e-02       2.297750283457e+03 
       8.730346519944e-02       2.211368357032e+03 
       9.047107706562e-02       2.128747082413e+03 
       9.370574465694e-02       2.050703783026e+03 
       9.701488933780e-02       1.977733801224e+03 
       1.004054802388e-01       1.909928369866e+03 
       1.038841563080e-01       1.846934934752e+03 
       1.074573163961e-01       1.787971002683e+03 
       1.111311863637e-01       1.731900323223e+03 
       1.149118693621e-01       1.677374171169e+03 
       1.188053836081e-01       1.623029721739e+03 
       1.228176907822e-01       1.567723178116e+03 
       1.269547173896e-01       1.510756012382e+03 
       1.312223708965e-01       1.452041735290e+03 
       1.356265521054e-01       1.392158402896e+03 
       1.401731650024e-01       1.332252115952e+03 
       1.448681251556e-01       1.273791445094e+03 
       1.497173676479e-01       1.218219254755e+03 
       1.547268554668e-01       1.166585450540e+03 
       1.599025892325e-01       1.119260191611e+03 
       1.652506191251e-01       1.075818742252e+03 
       1.707770598536e-01       1.035153205409e+03 
       1.764881095003e-01       9.958091239826e+02 
       1.823900730655e-01       9.564667764344e+02 
       1.884893915407e-01       9.164092492186e+02 
       1.947926773393e-01       8.757826563452e+02 
       2.013067569412e-01       8.355078793393e+02 
       2.080387216452e-01       7.968512999347e+02 
       2.149959873991e-01       7.608372589811e+02 
       2.221863647931e-01       7.277806935023e+02 
       2.296181404732e-01       6.971749884833e+02 
       2.373001714843e-01       6.680026098082e+02 
       2.452419943934e-01       6.393140167445e+02 
       2.534539515152e-01       6.107468236824e+02 
       2.619473371901e-01       5.826578914058e+02 
       2.707345679014e-01       5.557783831248e+02 
       2.798293811186e-01       5.306415449490e+02 
       2.892470692182e-01       5.072071119172e+02 
       2.990047567706e-01       4.849546323076e+02 
       3.091217320711e-01       4.633446875505e+02 
       3.196198472944e-01       4.422381371679e+02 
       3.305240064107e-01       4.219021913475e+02 
       3.418627665923e-01       4.026337867637e+02 
       3.536690880481e-01       3.844167300446e+02 
       3.659812803271e-01       3.669689945969e+02 
       3.788442120598e-01       3.500762386321e+02 
       3.923108789424e-01       3.337761144932e+02 
       4.064444665191e-01       3.181840827614e+02 
       4.213211082393e-01       3.032562579922e+02 
       4.370336394776e-01       2.888397731445e+02 
       4.536968093360e-01       2.748729392759e+02 
       4.714546786951e-01       2.613725475256e+02 
       4.904913885083e-01       2.482829622832e+02 
       5.110472890571e-01       2.355064944607e+02 
       5.334439087786e-01       2.229923008922e+02 
       5.581241150679e-01       2.106667721217e+02 
       5.857196690350e-01       1.984175399511e+02 
       6.171710123236e-01       1.861230942987e+02 
       6.539532897204e-01       1.736014501134e+02 
       6.985347930285e-01       1.605945260808e+02 
       7.553835634147e-01       1.467035925220e+02 
       8.333305228866e-01       1.313140621886e+02 
       9.508966578340e-01       1.136040308502e+02 
       1.141467821676e+00       9.343020921481e+01 
       1.425787402870e+00       7.373041292406e+01 
       1.794488490058e+00       5.722827568637e+01 
       2.259122972842e+00       4.356508568687e+01 
       2.844067312566e+00       3.223917363793e+01 
       3.580468612642e+00       2.303633638008e+01 
       4.507542922586e+00       1.584556706296e+01 
       5.674660329997e+00       1.050917742355e+01 
       7.143974092733e+00       6.753817647599e+00 
       8.993730526541e+00       4.230801620719e+00 
       1.132243590669e+01       2.597806984024e+00 
