# Matter power spectrum P(k) at redshift z=2
# for k=2.26927e-07 to 11.3871 h/Mpc,
# number of wavenumbers equal to 139
#    1:k (h/Mpc)              2:P (Mpc/h)^3        
       2.269266419402e-07       1.222715208414e-01 
       2.856837161516e-07       1.529097977410e-01 
       3.596544899991e-07       1.912252835117e-01 
       4.527781769257e-07       2.391417004527e-01 
       5.700139528376e-07       2.990648088650e-01 
       7.176050503045e-07       3.740031941906e-01 
       9.034112334601e-07       4.677193201344e-01 
       1.137327359103e-06       5.849184321432e-01 
       1.431810313904e-06       7.314847951156e-01 
       1.802542389043e-06       9.147771265751e-01 
       2.269266419402e-06       1.143998056943e+00 
       2.856837161516e-06       1.430656165761e+00 
       3.596544899991e-06       1.789143791499e+00 
       4.527781769257e-06       2.237459618075e+00 
       5.700139528376e-06       2.798112313560e+00 
       7.176050503045e-06       3.499250574358e+00 
       9.034112334601e-06       4.376076282464e+00 
       1.137327359103e-05       5.472611672306e+00 
       1.431810313904e-05       6.843909118566e+00 
       1.802542389043e-05       8.558814271416e+00 
       2.269266419402e-05       1.070342083118e+01 
       2.856837161516e-05       1.338538954369e+01 
       3.596544899991e-05       1.673934654464e+01 
       4.527781769257e-05       2.093362867009e+01 
       5.700139528376e-05       2.617870763240e+01 
       7.176050503045e-05       3.273770269793e+01 
       9.034112334601e-05       4.093948319041e+01 
       1.137327359103e-04       5.119496673854e+01 
       1.431810313904e-04       6.401732924075e+01 
       1.802542389043e-04       8.004694138607e+01 
       2.269266419402e-04       1.000818961035e+02 
       2.856837161516e-04       1.251149176417e+02 
       3.596544899991e-04       1.563771134662e+02 
       4.527781769257e-04       1.953882388171e+02 
       5.700139528376e-04       2.440116428844e+02 
       7.176050503045e-04       3.045097448067e+02 
       9.034112334601e-04       3.795931592622e+02 
       1.137327359103e-03       4.724543679712e+02 
       1.431810313904e-03       5.867733934573e+02 
       1.802542389043e-03       7.266657642799e+02 
       2.269266419402e-03       8.965003997307e+02 
       2.856837161516e-03       1.100503313887e+03 
       3.596544899991e-03       1.342135167654e+03 
       4.527781769257e-03       1.623115079817e+03 
       5.700139528376e-03       1.939363761186e+03 
       7.176050503045e-03       2.288192248893e+03 
       9.034112334601e-03       2.653397452475e+03 
       1.137327359103e-02       3.009860304185e+03 
       1.431810313904e-02       3.319236209132e+03 
       1.802542388993e-02       3.529987446623e+03 
       2.269266266429e-02       3.585236195543e+03 
       2.856770128516e-02       3.446278358607e+03 
       3.590630074589e-02       3.134927688935e+03 
       4.398823533559e-02       2.792494293033e+03 
       5.013037208095e-02       2.583755001830e+03 
       5.475700318628e-02       2.456281027538e+03 
       5.868657563224e-02       2.362079768170e+03 
       6.225076748632e-02       2.282789664499e+03 
       6.560594632085e-02       2.209827964012e+03 
       6.883842346728e-02       2.138588553872e+03 
       7.200153807561e-02       2.066522707955e+03 
       7.513113801626e-02       1.992374264076e+03 
       7.825295338638e-02       1.915815163157e+03 
       8.138647391166e-02       1.837227929399e+03 
       8.454714899789e-02       1.757535292310e+03 
       8.774771318565e-02       1.678036783205e+03 
       9.099902420740e-02       1.600238492846e+03 
       9.431061423090e-02       1.525675789176e+03 
       9.769106446695e-02       1.455738433540e+03 
       1.011482666950e-01       1.391508950128e+03 
       1.046896099205e-01       1.333627823413e+03 
       1.083221159813e-01       1.282197278312e+03 
       1.120525394263e-01       1.236735411803e+03 
       1.158874418135e-01       1.196192413005e+03 
       1.198332473314e-01       1.159041012458e+03 
       1.238962845746e-01       1.123450830855e+03 
       1.280828179479e-01       1.087544274200e+03 
       1.323990712830e-01       1.049711346793e+03 
       1.368512456547e-01       1.008930335042e+03 
       1.414455329900e-01       9.650162010106e+02 
       1.461881267998e-01       9.187111001055e+02 
       1.510852311906e-01       8.715593174012e+02 
       1.561430692047e-01       8.255673930562e+02 
       1.613678914637e-01       7.827199308252e+02 
       1.667659860492e-01       7.444742224272e+02 
       1.723436905260e-01       7.113682328103e+02 
       1.781074069944e-01       6.828531318562e+02 
       1.840636210487e-01       6.574183699196e+02 
       1.902189255090e-01       6.330212841302e+02 
       1.965800497927e-01       6.077451983928e+02 
       2.031538957959e-01       5.804885418082e+02 
       2.099475811757e-01       5.513942081098e+02 
       2.169684909630e-01       5.217731529963e+02 
       2.242243385040e-01       4.934992854858e+02 
       2.317232368451e-01       4.681393937814e+02 
       2.394737818402e-01       4.462357190430e+02 
       2.474851485097e-01       4.270895154362e+02 
       2.557672025162e-01       4.091682805022e+02 
       2.643306290932e-01       3.909662760910e+02 
       2.731870823857e-01       3.718614952339e+02 
       2.823493589938e-01       3.524153134194e+02 
       2.918316006118e-01       3.338730686838e+02 
       3.016495321095e-01       3.172134044588e+02 
       3.118207433321e-01       3.024556306948e+02 
       3.223650254735e-01       2.887394815982e+02 
       3.333047763427e-01       2.751003978987e+02 
       3.446654935670e-01       2.612803962115e+02 
       3.564763812721e-01       2.478279034985e+02 
       3.687711048635e-01       2.354052387169e+02 
       3.815887413962e-01       2.240602198674e+02 
       3.949749915570e-01       2.132534462577e+02 
       4.089837464540e-01       2.025582948109e+02 
       4.236791429947e-01       1.921251326609e+02 
       4.391383035489e-01       1.823122186294e+02 
       4.554550521975e-01       1.730853785497e+02 
       4.727450544687e-01       1.641214893634e+02 
       4.911530818700e-01       1.553592209273e+02 
       5.108635344980e-01       1.469666479550e+02 
       5.321161146982e-01       1.388808011952e+02 
       5.552299349245e-01       1.309394328446e+02 
       5.806420040869e-01       1.231741077294e+02 
       6.089713985693e-01       1.155274363078e+02 
       6.411318744862e-01       1.078881926012e+02 
       6.785417747792e-01       1.001878191833e+02 
       7.235438545914e-01       9.226602661950e+01 
       7.803136700730e-01       8.391782491121e+01 
       8.569727848501e-01       7.481924839842e+01 
       9.704839521292e-01       6.453314190808e+01 
       1.153424236189e+00       5.289645597853e+01 
       1.434347415134e+00       4.138665056818e+01 
       1.804740435018e+00       3.190331419180e+01 
       2.272021734311e+00       2.430867003370e+01 
       2.860305872034e+00       1.816814106915e+01 
       3.600911747801e+00       1.323208343398e+01 
       4.533279304934e+00       9.346058108971e+00 
       5.707060515743e+00       6.385054709717e+00 
       7.184763509915e+00       4.220562984124e+00 
       9.045081360364e+00       2.707871744095e+00 
       1.138708277631e+01       1.694150619783e+00 
