# Matter power spectrum P(k) at redshift z=1
# for k=1.80584e-07 to 11.4076 h/Mpc,
# number of wavenumbers equal to 140
#    1:k (h/Mpc)              2:P (Mpc/h)^3        
       1.805841532355e-07       8.017190028547e-01 
       2.273419794755e-07       1.000120149941e+00 
       2.862065951294e-07       1.247619565448e+00 
       3.603127556314e-07       1.556367581769e+00 
       4.536068842580e-07       1.941521369543e+00 
       5.710572335572e-07       2.421989038570e+00 
       7.189184629140e-07       3.021357880219e+00 
       9.050647219704e-07       3.769052320459e+00 
       1.139408977807e-06       4.701778430387e+00 
       1.434430916588e-06       5.865325903227e+00 
       1.805841532355e-06       7.316815957510e+00 
       2.273419794755e-06       9.127505512743e+00 
       2.862065951294e-06       1.138628527816e+01 
       3.603127556314e-06       1.420404345031e+01 
       4.536068842580e-06       1.771910915480e+01 
       5.710572335572e-06       2.210404272777e+01 
       7.189184629140e-06       2.757410586284e+01 
       9.050647219704e-06       3.439782686845e+01 
       1.139408977807e-05       4.291017849366e+01 
       1.434430916588e-05       5.352901293426e+01 
       1.805841532355e-05       6.677555620416e+01 
       2.273419794755e-05       8.329995883474e+01 
       2.862065951294e-05       1.039131391551e+02 
       3.603127556314e-05       1.296264466876e+02 
       4.536068842580e-05       1.617010224221e+02 
       5.710572335572e-05       2.017091402374e+02 
       7.189184629140e-05       2.516102680911e+02 
       9.050647219704e-05       3.138450479194e+02 
       1.139408977807e-04       3.914507651151e+02 
       1.434430916588e-04       4.882019593749e+02 
       1.805841532355e-04       6.087792302389e+02 
       2.273419794755e-04       7.589673273018e+02 
       2.862065951294e-04       9.458792339106e+02 
       3.603127556314e-04       1.178194920926e+03 
       4.536068842580e-04       1.466391306813e+03 
       5.710572335572e-04       1.822926046224e+03 
       7.189184629140e-04       2.262327196123e+03 
       9.050647219704e-04       2.801125736203e+03 
       1.139408977807e-03       3.457487828769e+03 
       1.434430916588e-03       4.250206771322e+03 
       1.805841532355e-03       5.196696689191e+03 
       2.273419794755e-03       6.309908688820e+03 
       2.862065951294e-03       7.593834199915e+03 
       3.603127556314e-03       9.037529611560e+03 
       4.536068842580e-03       1.058745673830e+04 
       5.710572335572e-03       1.221039794880e+04 
       7.189184629140e-03       1.378850219520e+04 
       9.050647219704e-03       1.517216838628e+04 
       1.139408977807e-02       1.616679637785e+04 
       1.434430916556e-02       1.655018196249e+04 
       1.805841427947e-02       1.612712118304e+04 
       2.273372167195e-02       1.484285420540e+04 
       2.857723069396e-02       1.294029725551e+04 
       3.505347999889e-02       1.113062213826e+04 
       4.000652775529e-02       1.008383052054e+04 
       4.372556837030e-02       9.452097599237e+03 
       4.687787793599e-02       8.982733491838e+03 
       4.973394733354e-02       8.585883181360e+03 
       5.242076900862e-02       8.222450230347e+03 
       5.500822792408e-02       7.873236812094e+03 
       5.753941742065e-02       7.528887264053e+03 
       6.004325095452e-02       7.185804683357e+03 
       6.254045349466e-02       6.844111175835e+03 
       6.504670595493e-02       6.506383658639e+03 
       6.757442662969e-02       6.176699992904e+03 
       7.013384313832e-02       5.859819743741e+03 
       7.273366952144e-02       5.560449896156e+03 
       7.538155124688e-02       5.282597410176e+03 
       7.808436741788e-02       5.029032752920e+03 
       8.084844163695e-02       4.800894411778e+03 
       8.367969243658e-02       4.597461705348e+03 
       8.658374252797e-02       4.416122043366e+03 
       8.956599924496e-02       4.252556856351e+03 
       9.263171437325e-02       4.101167885682e+03 
       9.578602893603e-02       3.955748288306e+03 
       9.903400682889e-02       3.810359450082e+03 
       1.023806601049e-01       3.660306975056e+03 
       1.058309679888e-01       3.503029178051e+03 
       1.093898912188e-01       3.338660763336e+03 
       1.130623829976e-01       3.170055668515e+03 
       1.168533976182e-01       3.002167835603e+03 
       1.207678976947e-01       2.840877016997e+03 
       1.248108608370e-01       2.691531098320e+03 
       1.289872865513e-01       2.557583995462e+03 
       1.333022041136e-01       2.439694492281e+03 
       1.377606821399e-01       2.335546198520e+03 
       1.423678405651e-01       2.240494489672e+03 
       1.471288657291e-01       2.148956378649e+03 
       1.520490292667e-01       2.056208021789e+03 
       1.571337114921e-01       1.959990586989e+03 
       1.623884299760e-01       1.861227703033e+03 
       1.678188740259e-01       1.763431111365e+03 
       1.734309458124e-01       1.670983892198e+03 
       1.792308089399e-01       1.587092431120e+03 
       1.852249453489e-01       1.512386962296e+03 
       1.914202215710e-01       1.444827155289e+03 
       1.978239655529e-01       1.380943421809e+03 
       2.044440555359e-01       1.317771884494e+03 
       2.112890228494e-01       1.254391029316e+03 
       2.183681709713e-01       1.192102905653e+03 
       2.256917138721e-01       1.133165994623e+03 
       2.332709375322e-01       1.079033240317e+03 
       2.411183896805e-01       1.029390723359e+03 
       2.492481043339e-01       9.826303337139e+02 
       2.576758697656e-01       9.372566601037e+02 
       2.664195512878e-01       8.929843772852e+02 
       2.754994839782e-01       8.505954573907e+02 
       2.849389556468e-01       8.108402390888e+02 
       2.947648075426e-01       7.735955785953e+02 
       3.050081905115e-01       7.381056449755e+02 
       3.157055290175e-01       7.038595650863e+02 
       3.268997669808e-01       6.709755649520e+02 
       3.386420015533e-01       6.397134129552e+02 
       3.509936599927e-01       6.099384171531e+02 
       3.640294512766e-01       5.812949471049e+02 
       3.778414464176e-01       5.536533730643e+02 
       3.925448425890e-01       5.270432226418e+02 
       4.082863074636e-01       5.013321568256e+02 
       4.252563998647e-01       4.763111940086e+02 
       4.437086591901e-01       4.518699898502e+02 
       4.639900524730e-01       4.278492447738e+02 
       4.865916867458e-01       4.040197212266e+02 
       5.122376910397e-01       3.801329695630e+02 
       5.420506453260e-01       3.558282426319e+02 
       5.778818815552e-01       3.306003256037e+02 
       6.230248664128e-01       3.036706411326e+02 
       6.838726347611e-01       2.738024060234e+02 
       7.737665270076e-01       2.391589532282e+02 
       9.184898203905e-01       1.984100385663e+02 
       1.141454500101e+00       1.559162009505e+02 
       1.436140544986e+00       1.192701989802e+02 
       1.807983145102e+00       8.924480879435e+01 
       2.276115901555e+00       6.496038105720e+01 
       2.865460148649e+00       4.580120733259e+01 
       3.607400597618e+00       3.122803559874e+01 
       4.541448282863e+00       2.062109438780e+01 
       5.717344649645e+00       1.323920389510e+01 
       7.197710467424e+00       8.302944350625e+00 
       9.061380614176e+00       5.109901522272e+00 
       1.140760232113e+01       3.098694878147e+00 
