# Matter power spectrum P(k) at redshift z=1
# for k=2.38942e-07 to 11.9879 h/Mpc,
# number of wavenumbers equal to 139
#    1:k (h/Mpc)              2:P (Mpc/h)^3        
       2.389423681479e-07       4.248858156109e-01 
       3.008106192157e-07       5.266016707084e-01 
       3.786981326682e-07       6.526678681693e-01 
       4.767527026150e-07       8.089137761962e-01 
       6.001960924635e-07       1.002564288504e+00 
       7.556021128619e-07       1.242573907209e+00 
       9.512467010872e-07       1.540040803295e+00 
       1.197548644884e-06       1.908720000941e+00 
       1.507624420904e-06       2.365659415150e+00 
       1.897986694918e-06       2.931988152989e+00 
       2.389423681479e-06       3.633893527068e+00 
       3.008106192157e-06       4.503831955967e+00 
       3.786981326682e-06       5.582029738113e+00 
       4.767527026150e-06       6.918343080339e+00 
       6.001960924635e-06       8.574563364445e+00 
       7.556021128619e-06       1.062727419460e+01 
       9.512467010872e-06       1.317139223603e+01 
       1.197548644884e-05       1.632455536951e+01 
       1.507624420904e-05       2.023256067231e+01 
       1.897986694918e-05       2.507610290405e+01 
       2.389423681479e-05       3.107912353818e+01 
       3.008106192157e-05       3.851915339795e+01 
       3.786981326682e-05       4.774012119920e+01 
       4.767527026150e-05       5.916820865503e+01 
       6.001960924635e-05       7.333146249416e+01 
       7.556021128619e-05       9.088402556020e+01 
       9.512467010872e-05       1.126360202862e+02 
       1.197548644884e-04       1.395902961288e+02 
       1.507624420904e-04       1.729874103720e+02 
       1.897986694918e-04       2.143602867191e+02 
       2.389423681479e-04       2.655998697344e+02 
       3.008106192157e-04       3.290325512058e+02 
       3.786981326682e-04       4.075088491238e+02 
       4.767527026150e-04       5.045003441450e+02 
       6.001960924635e-04       6.241979551186e+02 
       7.556021128619e-04       7.715997554769e+02 
       9.512467010872e-04       9.525722052891e+02 
       1.197548644884e-03       1.173863559056e+03 
       1.507624420904e-03       1.443025390649e+03 
       1.897986694918e-03       1.768132246473e+03 
       2.389423681479e-03       2.157150330432e+03 
       3.008106192157e-03       2.616890088031e+03 
       3.786981326682e-03       3.151401715933e+03 
       4.767527026150e-03       3.759717827837e+03 
       6.001960924635e-03       4.422596040191e+03 
       7.556021128619e-03       5.134711615365e+03 
       9.512467010872e-03       5.851516879734e+03 
       1.197548644884e-02       6.514707653151e+03 
       1.507624420904e-02       7.042738434971e+03 
       1.897986694908e-02       7.334128801503e+03 
       2.389423635169e-02       7.285901512043e+03 
       3.008078131220e-02       6.840137477817e+03 
       3.783755904395e-02       6.060355812354e+03 
       4.676976899513e-02       5.227516366524e+03 
       5.395976253085e-02       4.715516071624e+03 
       5.924583758727e-02       4.422646704709e+03 
       6.365994655941e-02       4.215402524754e+03 
       6.762739065941e-02       4.045848980047e+03 
       7.134209065855e-02       3.893159662752e+03 
       7.490847749840e-02       3.746773822363e+03 
       7.838994986483e-02       3.601117350671e+03 
       8.182854342987e-02       3.453561068767e+03 
       8.525410451970e-02       3.303463925419e+03 
       8.868903807623e-02       3.151613913871e+03 
       9.215096859145e-02       2.999812826687e+03 
       9.565432753165e-02       2.850505076225e+03 
       9.921134904816e-02       2.706418281686e+03 
       1.028327206332e-01       2.570214758453e+03 
       1.065280228914e-01       2.444169307868e+03 
       1.103060351862e-01       2.329893352150e+03 
       1.141749529930e-01       2.228124776763e+03 
       1.181425453505e-01       2.138600098696e+03 
       1.222162705753e-01       2.060023594189e+03 
       1.264033622096e-01       1.990149078785e+03 
       1.307108933061e-01       1.925991743596e+03 
       1.351458246917e-01       1.864180599510e+03 
       1.397150412476e-01       1.801440192596e+03 
       1.444253791885e-01       1.735148923663e+03 
       1.492836466207e-01       1.663868394460e+03 
       1.542966391938e-01       1.587698919334e+03 
       1.594711523476e-01       1.508321243366e+03 
       1.648139914540e-01       1.428652304240e+03 
       1.703319810210e-01       1.352160719888e+03 
       1.760319740404e-01       1.282005871579e+03 
       1.819208625130e-01       1.220229260968e+03 
       1.880055901450e-01       1.167213246456e+03 
       1.942931681964e-01       1.121556728993e+03 
       2.007906954424e-01       1.080437530855e+03 
       2.075053832013e-01       1.040436854376e+03 
       2.144445863804e-01       9.986540986100e+02 
       2.216158414924e-01       9.537470525246e+02 
       2.290269126147e-01       9.064246826458e+02 
       2.366858463011e-01       8.590738736436e+02 
       2.446010365273e-01       8.146244226468e+02 
       2.527813008623e-01       7.751855644254e+02 
       2.612359692354e-01       7.411141655439e+02 
       2.699749869169e-01       7.109513077929e+02 
       2.790090336862e-01       6.822674235910e+02 
       2.883496616451e-01       6.530220665384e+02 
       2.980094547841e-01       6.226833909053e+02 
       3.080022142806e-01       5.923646671411e+02 
       3.183431746513e-01       5.638556049923e+02 
       3.290492574045e-01       5.382659761707e+02 
       3.401393708447e-01       5.152925490671e+02 
       3.516347673702e-01       4.936180638462e+02 
       3.635594732030e-01       4.720746459228e+02 
       3.759408103905e-01       4.505614204650e+02 
       3.888100376440e-01       4.298872073133e+02 
       4.022031459501e-01       4.107620490201e+02 
       4.161618581361e-01       3.930455673255e+02 
       4.307349005929e-01       3.760272752400e+02 
       4.459796431478e-01       3.593067393742e+02 
       4.619642444546e-01       3.431371458790e+02 
       4.787705031274e-01       3.278531448086e+02 
       4.964977125155e-01       3.133104603353e+02 
       5.152679725780e-01       2.991633532393e+02 
       5.352336669667e-01       2.853882362448e+02 
       5.565882432546e-01       2.721104804748e+02 
       5.795821851748e-01       2.592048148495e+02 
       6.045474295504e-01       2.465090872233e+02 
       6.319360690636e-01       2.340132654841e+02 
       6.623843469886e-01       2.215995990615e+02 
       6.968238591611e-01       2.091115341932e+02 
       7.366864406238e-01       1.963860258070e+02 
       7.843084818560e-01       1.831461653531e+02 
       8.437932119148e-01       1.689902612960e+02 
       9.229948798785e-01       1.532646901397e+02 
       1.038183485451e+00       1.349523167081e+02 
       1.221939153895e+00       1.130205400755e+02 
       1.510844199374e+00       8.902961472571e+01 
       1.899976822870e+00       6.757610836042e+01 
       2.391896579397e+00       4.986200519906e+01 
       3.011219288827e+00       3.559184616771e+01 
       3.790900483150e+00       2.450541502167e+01 
       4.772460951820e+00       1.629158456166e+01 
       6.008172369042e+00       1.050321144771e+01 
       7.563840873826e+00       6.602615087387e+00 
       9.522311486827e+00       4.068524586688e+00 
       1.198787990979e+01       2.468754149864e+00 
