# Matter power spectrum P(k) at redshift z=0
# for k=2.35719e-07 to 11.8283 h/Mpc,
# number of wavenumbers equal to 139
#    1:k (h/Mpc)              2:P (Mpc/h)^3        
       2.357194455575e-07       1.173979410483e+00 
       2.967532000664e-07       1.456835380170e+00 
       3.735901445948e-07       1.807842033168e+00 
       4.703221266263e-07       2.243419442017e+00 
       5.921004769389e-07       2.783943894081e+00 
       7.454103367538e-07       3.454701092746e+00 
       9.384160151534e-07       4.287069019943e+00 
       1.181395768311e-06       5.319985794102e+00 
       1.487289154113e-06       6.601771188284e+00 
       1.872386110799e-06       8.192387017215e+00 
       2.357194455575e-06       1.016624212868e+01 
       2.967532000664e-06       1.261567320836e+01 
       3.735901445948e-06       1.565526421114e+01 
       4.703221266263e-06       1.942720644835e+01 
       5.921004769389e-06       2.410795000497e+01 
       7.454103367538e-06       2.991645750495e+01 
       9.384160151534e-06       3.712444607035e+01 
       1.181395768311e-05       4.606909606892e+01 
       1.487289154113e-05       5.716882013073e+01 
       1.872386110799e-05       7.094282809491e+01 
       2.357194455575e-05       8.803539914413e+01 
       2.967532000664e-05       1.092459887651e+02 
       3.735901445948e-05       1.355665635787e+02 
       4.703221266263e-05       1.682278804199e+02 
       5.921004769389e-05       2.087568154676e+02 
       7.454103367538e-05       2.590473096234e+02 
       9.384160151534e-05       3.214480230043e+02 
       1.181395768311e-04       3.988703602063e+02 
       1.487289154113e-04       4.949210724852e+02 
       1.872386110799e-04       6.140640230023e+02 
       2.357194455575e-04       7.618156486994e+02 
       2.967532000664e-04       9.449777234117e+02 
       3.735901445948e-04       1.171908613678e+03 
       4.703221266263e-04       1.452829777309e+03 
       5.921004769389e-04       1.800157805894e+03 
       7.454103367538e-04       2.228844135457e+03 
       9.384160151534e-04       2.756689596300e+03 
       1.181395768311e-03       3.404556026178e+03 
       1.487289154113e-03       4.196302414394e+03 
       1.872386110799e-03       5.158215158712e+03 
       2.357194455575e-03       6.317686129205e+03 
       2.967532000664e-03       7.700646676187e+03 
       3.735901445948e-03       9.327395865672e+03 
       4.703221266263e-03       1.120621679333e+04 
       5.921004769389e-03       1.323676409320e+04 
       7.454103367538e-03       1.550571504089e+04 
       9.384160151534e-03       1.785489759604e+04 
       1.181395768311e-02       2.011828953765e+04 
       1.487289154113e-02       2.205090160727e+04 
       1.872386110747e-02       2.333410406748e+04 
       2.357194294456e-02       2.362859663092e+04 
       2.967461653974e-02       2.271719700224e+04 
       3.729712648675e-02       2.075570030627e+04 
       4.568683073172e-02       1.863631320610e+04 
       5.205930726781e-02       1.737528962750e+04 
       5.686083888007e-02       1.662969577955e+04 
       6.093970620212e-02       1.609666285570e+04 
       6.463967613445e-02       1.565931749566e+04 
       6.812287636511e-02       1.526164466790e+04 
       7.147882214823e-02       1.487229375206e+04 
       7.476284356447e-02       1.447280055283e+04 
       7.801213216792e-02       1.405308349823e+04 
       8.125338574315e-02       1.360945553466e+04 
       8.450682905912e-02       1.314351413808e+04 
       8.778849557466e-02       1.266123886345e+04 
       9.111160223836e-02       1.217200615705e+04 
       9.448741882371e-02       1.168742033792e+04 
       9.792583978812e-02       1.121997526283e+04 
       1.014357729142e-01       1.078163060207e+04 
       1.050254106463e-01       1.038241855161e+04 
       1.087024237577e-01       1.002919464124e+04 
       1.124741020550e-01       9.724629191794e+03 
       1.163474580135e-01       9.466524788972e+03 
       1.203293038708e-01       9.247560005170e+03 
       1.244263093428e-01       9.055606652487e+03 
       1.286450449711e-01       8.874812665827e+03 
       1.329920147104e-01       8.687614376340e+03 
       1.374736804331e-01       8.477662025499e+03 
       1.420964804177e-01       8.233274348694e+03 
       1.468668434703e-01       7.950588708398e+03 
       1.517912000621e-01       7.635293592131e+03 
       1.568759916838e-01       7.302010290542e+03 
       1.621276795040e-01       6.971103578623e+03 
       1.675527533450e-01       6.663653111554e+03 
       1.731577419457e-01       6.395988873652e+03 
       1.789492254497e-01       6.175262274465e+03 
       1.849338510412e-01       5.997152893115e+03 
       1.911183526380e-01       5.846438259616e+03 
       1.975095755425e-01       5.700901495177e+03 
       2.041145069495e-01       5.538395476630e+03 
       2.109403132158e-01       5.345269052270e+03 
       2.179943848147e-01       5.122446078621e+03 
       2.252843899421e-01       4.885320266488e+03 
       2.328183378112e-01       4.656619994791e+03 
       2.406046527913e-01       4.455681998627e+03 
       2.486522607220e-01       4.289602882197e+03 
       2.569706889879e-01       4.150410044022e+03 
       2.655701822943e-01       4.019650045232e+03 
       2.744618365689e-01       3.878822491717e+03 
       2.836577540623e-01       3.720418562314e+03 
       2.931712235881e-01       3.552055444359e+03 
       3.030169309831e-01       3.389961838275e+03 
       3.132112063800e-01       3.246630535642e+03 
       3.237723168933e-01       3.122227342477e+03 
       3.347208159913e-01       3.005975936818e+03 
       3.460799644332e-01       2.886145271526e+03 
       3.578762425531e-01       2.760221629564e+03 
       3.701399804274e-01       2.635690855426e+03 
       3.829061418931e-01       2.520876571269e+03 
       3.962153117581e-01       2.416161944461e+03 
       4.101149547986e-01       2.315062299637e+03 
       4.246610433746e-01       2.212987721706e+03 
       4.399201926699e-01       2.112257312442e+03 
       4.559725069008e-01       2.017103233859e+03 
       4.729154402390e-01       1.927005026509e+03 
       4.908691368622e-01       1.838579508151e+03 
       5.099839789711e-01       1.751538873300e+03 
       5.304515206111e-01       1.667696049671e+03 
       5.525207748470e-01       1.586359081342e+03 
       5.765232670563e-01       1.506115386351e+03 
       6.029130338976e-01       1.427275659227e+03 
       6.323333228997e-01       1.349217114697e+03 
       6.657336554383e-01       1.270903242829e+03 
       7.045880592743e-01       1.191418777220e+03 
       7.513316130720e-01       1.108936169560e+03 
       8.103051667273e-01       1.020716576381e+03 
       8.899533188076e-01       9.219789018786e+02 
       1.007914800910e+00       8.045041104947e+02 
       1.198045122235e+00       6.584899164741e+02 
       1.489921733942e+00       4.946535760098e+02 
       1.874674031048e+00       3.487629655594e+02 
       2.360062593861e+00       2.351367624028e+02 
       2.971142746809e+00       1.532634563463e+02 
       3.740447106018e+00       9.747852239336e+01 
       4.708943913238e+00       6.093658525071e+01 
       5.928209155089e+00       3.764019353619e+01 
       7.463173151773e+00       2.305968466698e+01 
       9.395578333386e+00       1.404752500000e+01 
       1.182833232240e+01       8.524167639656e+00 
