# Matter power spectrum P(k) at redshift z=0.5
# for k=2.33412e-07 to 11.7139 h/Mpc,
# number of wavenumbers equal to 139
#    1:k (h/Mpc)              2:P (Mpc/h)^3        
       2.334122392182e-07       5.433154334563e-01 
       2.938485993756e-07       6.747797509548e-01 
       3.699334689741e-07       8.380540734407e-01 
       4.657186447646e-07       1.040835367114e+00 
       5.863050366405e-07       1.292683008336e+00 
       7.381143096896e-07       1.605469425256e+00 
       9.292308612772e-07       1.993939778921e+00 
       1.169832344685e-06       2.476407068673e+00 
       1.472731666263e-06       3.075615428777e+00 
       1.854059319412e-06       3.819812313330e+00 
       2.334122392182e-06       4.744080109948e+00 
       2.938485993756e-06       5.891989954037e+00 
       3.699334689741e-06       7.317655699181e+00 
       4.657186447646e-06       9.088284854779e+00 
       5.863050366405e-06       1.128734671721e+01 
       7.381143096896e-06       1.401850698829e+01 
       9.292308612772e-06       1.741051425196e+01 
       1.169832344685e-05       2.162326844258e+01 
       1.472731666263e-05       2.685535695591e+01 
       1.854059319412e-05       3.335341279874e+01 
       2.334122392182e-05       4.142373427909e+01 
       2.938485993756e-05       5.144671069305e+01 
       3.699334689741e-05       6.389472758981e+01 
       4.657186447646e-05       7.935438295888e+01 
       5.863050366405e-05       9.855403664667e+01 
       7.381143096896e-05       1.223979426861e+02 
       9.292308612772e-05       1.520084776750e+02 
       1.169832344685e-04       1.887782687443e+02 
       1.472731666263e-04       2.344343155950e+02 
       1.854059319412e-04       2.911164312335e+02 
       2.334122392182e-04       3.614723744458e+02 
       2.938485993756e-04       4.487716976876e+02 
       3.699334689741e-04       5.570392559459e+02 
       4.657186447646e-04       6.912071286378e+02 
       5.863050366405e-04       8.572802110839e+02 
       7.381143096896e-04       1.062506309823e+03 
       9.292308612772e-04       1.315536203665e+03 
       1.169832344685e-03       1.626546199888e+03 
       1.472731666263e-03       2.007254962038e+03 
       1.854059319412e-03       2.470702368152e+03 
       2.334122392182e-03       3.030656069676e+03 
       2.938485993756e-03       3.700471156593e+03 
       3.699334689741e-03       4.491158353912e+03 
       4.657186447646e-03       5.389676324149e+03 
       5.863050366405e-03       6.420006393136e+03 
       7.381143096896e-03       7.548653036115e+03 
       9.292308612772e-03       8.730645897381e+03 
       1.169832344685e-02       9.888348285521e+03 
       1.472731666263e-02       1.090406915335e+04 
       1.854059319295e-02       1.162095905348e+04 
       2.334122093133e-02       1.186731574330e+04 
       2.938375316712e-02       1.152595134292e+04 
       3.690831393735e-02       1.065842839798e+04 
       4.495664721051e-02       9.692404155936e+03 
       5.093112274327e-02       9.090782348261e+03 
       5.549359472296e-02       8.702478069356e+03 
       5.940102914154e-02       8.404888521694e+03 
       6.296115659205e-02       8.149259145995e+03 
       6.632160770606e-02       7.912040969483e+03 
       6.956490642816e-02       7.680297066455e+03 
       7.274252076741e-02       7.446722965419e+03 
       7.588928489087e-02       7.207628421652e+03 
       7.903034311584e-02       6.961970761551e+03 
       8.218483160041e-02       6.710776636794e+03 
       8.536798079204e-02       6.456682682422e+03 
       8.859238858772e-02       6.203481615317e+03 
       9.186882868929e-02       5.955632945743e+03 
       9.520678413767e-02       5.717737733712e+03 
       9.861481091649e-02       5.494002984155e+03 
       1.021007923897e-01       5.287732527907e+03 
       1.056721212449e-01       5.100887170076e+03 
       1.093358318741e-01       4.933755629562e+03 
       1.130986979851e-01       4.784779581724e+03 
       1.169673052686e-01       4.650577857114e+03 
       1.209481058238e-01       4.526217414108e+03 
       1.250474590415e-01       4.405769754758e+03 
       1.292716623386e-01       4.283155811663e+03 
       1.336269742736e-01       4.153206122208e+03 
       1.381196319964e-01       4.012756974112e+03 
       1.427558646048e-01       3.861502746646e+03 
       1.475419037243e-01       3.702295444655e+03 
       1.524839924657e-01       3.540679389634e+03 
       1.575883938019e-01       3.383666723608e+03 
       1.628613993443e-01       3.238018847647e+03 
       1.683093394524e-01       3.108477481589e+03 
       1.739385955848e-01       2.996422947388e+03 
       1.797556157854e-01       2.899349260761e+03 
       1.857669341819e-01       2.811406951010e+03 
       1.919791953726e-01       2.725068573880e+03 
       1.983991845698e-01       2.633627266811e+03 
       2.050338643790e-01       2.533736689847e+03 
       2.118904191120e-01       2.426832246791e+03 
       2.189763075735e-01       2.318518690360e+03 
       2.262993253367e-01       2.215987580844e+03 
       2.338676776405e-01       2.124653161893e+03 
       2.416900642176e-01       2.045654289459e+03 
       2.497757776174e-01       1.975451209203e+03 
       2.581348169439e-01       1.907819280785e+03 
       2.667780194077e-01       1.837391418409e+03 
       2.757172127431e-01       1.762781262503e+03 
       2.849653923964e-01       1.687130046862e+03 
       2.945369285333e-01       1.615522941598e+03 
       3.044478094142e-01       1.551160536106e+03 
       3.147159296832e-01       1.493185147661e+03 
       3.253614347841e-01       1.437770094677e+03 
       3.364071363086e-01       1.381551983181e+03 
       3.478790179770e-01       1.324419028914e+03 
       3.598068587031e-01       1.269020524148e+03 
       3.722250086354e-01       1.217601780865e+03 
       3.851733674682e-01       1.169659764692e+03 
       3.986986336495e-01       1.122926376309e+03 
       4.128559215037e-01       1.076268480578e+03 
       4.277108857866e-01       1.030719811332e+03 
       4.433425581445e-01       9.874388065202e+02 
       4.598472015497e-01       9.458752068366e+02 
       4.773436517833e-01       9.049080677040e+02 
       4.959808840477e-01       8.646374537186e+02 
       5.159490010265e-01       8.255617435971e+02 
       5.374956475211e-01       7.872116729907e+02 
       5.609513429516e-01       7.491235479621e+02 
       5.867700812017e-01       7.113629666235e+02 
       6.155973368992e-01       6.735145230006e+02 
       6.483900554320e-01       6.351274651772e+02 
       6.866417405241e-01       5.956617775341e+02 
       7.328359538737e-01       5.542040353897e+02 
       7.914351738043e-01       5.093741280712e+02 
       8.711929404113e-01       4.589217877924e+02 
       9.904433752697e-01       3.994360663318e+02 
       1.183345244915e+00       3.284597596378e+02 
       1.475246696231e+00       2.537444850589e+02 
       1.856527261928e+00       1.874972105983e+02 
       2.337222211249e+00       1.324947344457e+02 
       2.942388422014e+00       8.963746859853e+01 
       3.704247555839e+00       5.848715567489e+01 
       4.663371379623e+00       3.711712287745e+01 
       5.870836734440e+00       2.307832933952e+01 
       7.390945553482e+00       1.413990430584e+01 
       9.304649174465e+00       8.573501239857e+00 
       1.171385929356e+01       5.160318575990e+00 
