# Matter power spectrum P(k) at redshift z=0
# for k=2.03477e-07 to 10.2124 h/Mpc,
# number of wavenumbers equal to 139
#    1:k (h/Mpc)              2:P (Mpc/h)^3        
       2.034766374665e-07       1.548802069195e+00 
       2.561619096130e-07       1.929149655392e+00 
       3.224887375455e-07       2.402901225674e+00 
       4.059892667135e-07       2.992994493023e+00 
       5.111102047813e-07       3.728000104802e+00 
       6.434496250265e-07       4.643504951119e+00 
       8.100550841552e-07       5.783835176936e+00 
       1.019798930396e-06       7.204202320442e+00 
       1.283850788396e-06       8.973376482817e+00 
       1.616272382464e-06       1.117701594908e+01 
       2.034766374665e-06       1.392181445236e+01 
       2.561619096130e-06       1.734066685195e+01 
       3.224887375455e-06       2.159910326657e+01 
       4.059892667135e-06       2.690330305765e+01 
       5.111102047813e-06       3.351007643397e+01 
       6.434496250265e-06       4.173929646560e+01 
       8.100550841552e-06       5.198938245857e+01 
       1.019798930396e-05       6.475658245211e+01 
       1.283850788396e-05       8.065898466759e+01 
       1.616272382464e-05       1.004664130310e+02 
       2.034766374665e-05       1.251376395632e+02 
       2.561619096130e-05       1.558666864093e+02 
       3.224887375455e-05       1.941404022509e+02 
       4.059892667135e-05       2.418099884053e+02 
       5.111102047813e-05       3.011797166424e+02 
       6.434496250265e-05       3.751167000502e+02 
       8.100550841552e-05       4.671861826376e+02 
       1.019798930396e-04       5.818172447218e+02 
       1.283850788396e-04       7.245037555967e+02 
       1.616272382464e-04       9.020442217614e+02 
       2.034766374665e-04       1.122820795573e+03 
       2.561619096130e-04       1.397110472489e+03 
       3.224887375455e-04       1.737408499690e+03 
       4.059892667135e-04       2.158724574769e+03 
       5.111102047813e-04       2.678790248131e+03 
       6.434496250265e-04       3.318099139436e+03 
       8.100550841552e-04       4.099678731989e+03 
       1.019798930396e-03       5.048375456847e+03 
       1.283850788396e-03       6.189159981921e+03 
       1.616272382464e-03       7.543971753352e+03 
       2.034766374665e-03       9.127025470567e+03 
       2.561619096130e-03       1.093816189434e+04 
       3.224887375455e-03       1.295461095492e+04 
       4.059892667135e-03       1.512224877022e+04 
       5.111102047813e-03       1.734726207942e+04 
       6.434496250265e-03       1.949095770244e+04 
       8.100550841552e-03       2.129475183325e+04 
       1.019798930396e-02       2.266505641229e+04 
       1.283850788396e-02       2.330757629819e+04 
       1.616272382464e-02       2.299598801668e+04 
       2.034766374224e-02       2.157665378457e+04 
       2.561618268039e-02       1.907396252833e+04 
       3.224647724316e-02       1.582518766949e+04 
       4.044864194891e-02       1.255351231292e+04 
       4.879384730521e-02       1.028503172007e+04 
       5.483999038451e-02       9.148039362097e+03 
       5.955141287910e-02       8.440760462306e+03 
       6.363287552259e-02       7.898770549743e+03 
       6.737499965327e-02       7.431920483401e+03 
       7.092076254067e-02       7.002847802007e+03 
       7.435154197652e-02       6.595187274219e+03 
       7.771876426934e-02       6.202734184217e+03 
       8.105759104031e-02       5.824749368499e+03 
       8.439361265169e-02       5.463448933660e+03 
       8.774643941635e-02       5.122407429633e+03 
       9.113177151108e-02       4.805423547201e+03 
       9.456266179194e-02       4.515684314350e+03 
       9.805032245565e-02       4.255171253206e+03 
       1.016046601212e-01       4.024286747015e+03 
       1.052346419971e-01       3.821687981225e+03 
       1.089485529855e-01       3.644318328259e+03 
       1.127541800392e-01       3.487631429127e+03 
       1.166589465885e-01       3.346007568802e+03 
       1.206700118215e-01       3.213357118822e+03 
       1.247943446725e-01       3.083878847005e+03 
       1.290387792712e-01       2.952887862023e+03 
       1.334100566030e-01       2.817563739326e+03 
       1.379148558298e-01       2.677425235667e+03 
       1.425598178499e-01       2.534354945453e+03 
       1.473515631053e-01       2.392093567747e+03 
       1.522967052572e-01       2.255280636818e+03 
       1.574018620996e-01       2.128272159200e+03 
       1.626736649147e-01       2.014046282451e+03 
       1.681187673661e-01       1.913482372814e+03 
       1.737438549604e-01       1.825194297865e+03 
       1.795556560652e-01       1.745967468155e+03 
       1.855609554448e-01       1.671716286335e+03 
       1.917666112587e-01       1.598729465310e+03 
       1.981795764554e-01       1.524815952467e+03 
       2.048069254883e-01       1.449900316015e+03 
       2.116558872790e-01       1.375772803326e+03 
       2.187338853600e-01       1.305077116494e+03 
       2.260485861583e-01       1.240011800202e+03 
       2.336079564253e-01       1.181363979715e+03 
       2.414203309054e-01       1.128303068777e+03 
       2.494944914695e-01       1.078973891568e+03 
       2.578397591375e-01       1.031538285804e+03 
       2.664661006956e-01       9.850794451711e+02 
       2.753842520132e-01       9.398531068957e+02 
       2.846058606939e-01       8.967864655511e+02 
       2.941436514148e-01       8.566413457167e+02 
       3.040116182577e-01       8.194598052912e+02 
       3.142252495927e-01       7.846358207880e+02 
       3.248017927386e-01       7.514497603555e+02 
       3.357605678320e-01       7.195668326982e+02 
       3.471233432914e-01       6.890975026176e+02 
       3.589147892486e-01       6.602600491805e+02 
       3.711630307581e-01       6.330461285270e+02 
       3.839003301127e-01       6.072101005119e+02 
       3.971639381245e-01       5.825066564803e+02 
       4.109971692159e-01       5.588528100127e+02 
       4.254507768366e-01       5.362525873683e+02 
       4.405847376323e-01       5.146479285659e+02 
       4.564706006929e-01       4.939085918012e+02 
       4.731946316550e-01       4.739257198367e+02 
       4.908620967240e-01       4.546367462189e+02 
       5.096032173570e-01       4.359684530578e+02 
       5.295816341188e-01       4.178197263289e+02 
       5.510067450421e-01       4.000918071656e+02 
       5.741522187934e-01       3.826849918643e+02 
       5.993847116346e-01       3.654745823618e+02 
       6.272101653657e-01       3.483151685863e+02 
       6.583519002969e-01       3.310253453525e+02 
       6.938895390548e-01       3.133628132212e+02 
       7.355221412959e-01       2.949896385074e+02 
       7.861042568972e-01       2.754010950309e+02 
       8.508281929119e-01       2.537981131968e+02 
       9.400058426714e-01       2.288640666187e+02 
       1.075267862616e+00       1.986450010788e+02 
       1.294661683016e+00       1.622482453292e+02 
       1.618897380692e+00       1.252307128914e+02 
       2.037649097677e+00       9.375165686867e+01 
       2.565244809502e+00       6.823982556275e+01 
       3.229451873543e+00       4.817677534547e+01 
       4.065639029768e+00       3.298905682776e+01 
       5.118336289757e+00       2.196067921963e+01 
       6.443603621284e+00       1.426252216273e+01 
       8.112016342363e+00       9.071958612202e+00 
       1.021242351429e+01       5.672845979328e+00 
