# Matter power spectrum P(k) at redshift z=0
# for k=1.95701e-07 to 12.3654 h/Mpc,
# number of wavenumbers equal to 140
#    1:k (h/Mpc)              2:P (Mpc/h)^3        
       1.957009798611e-07       1.627730897756e+00 
       2.463729366601e-07       2.019912733104e+00 
       3.101651507398e-07       2.506585979394e+00 
       3.904747901193e-07       3.110517183661e+00 
       4.915786359462e-07       3.859958211656e+00 
       6.188608366878e-07       4.789967866312e+00 
       7.790996336704e-07       5.944051932305e+00 
       9.808283271472e-07       7.376198365161e+00 
       1.234789705653e-06       9.153402827361e+00 
       1.554508138669e-06       1.135880270728e+01 
       1.957009798611e-06       1.409556621231e+01 
       2.463729366601e-06       1.749171843619e+01 
       3.101651507398e-06       2.170613010117e+01 
       3.904747901193e-06       2.693594899550e+01 
       4.915786359462e-06       3.342582150575e+01 
       6.188608366878e-06       4.147933513180e+01 
       7.790996336704e-06       5.147321630096e+01 
       9.808283271472e-06       6.387494576273e+01 
       1.234789705653e-05       7.926461186999e+01 
       1.554508138669e-05       9.836201672440e+01 
       1.957009798611e-05       1.220602887831e+02 
       2.463729366601e-05       1.514675460155e+02 
       3.101651507398e-05       1.879585029745e+02 
       3.904747901193e-05       2.332383268256e+02 
       4.915786359462e-05       2.894215156001e+02 
       6.188608366878e-05       3.591290703197e+02 
       7.790996336704e-05       4.456076913488e+02 
       9.808283271472e-05       5.528749942284e+02 
       1.234789705653e-04       6.858944989497e+02 
       1.554508138669e-04       8.507828128750e+02 
       1.957009798611e-04       1.055047991816e+03 
       2.463729366601e-04       1.307851011379e+03 
       3.101651507398e-04       1.620269922451e+03 
       3.904747901193e-04       2.005528211313e+03 
       4.915786359462e-04       2.479129054510e+03 
       6.188608366878e-04       3.058823656233e+03 
       7.790996336704e-04       3.764324214137e+03 
       9.808283271472e-04       4.616567431398e+03 
       1.234789705653e-03       5.636084816411e+03 
       1.554508138669e-03       6.840063339546e+03 
       1.957009798611e-03       8.238084220017e+03 
       2.463729366601e-03       9.826231229659e+03 
       3.101651507398e-03       1.157999557959e+04 
       3.904747901193e-03       1.344702405717e+04 
       4.915786359462e-03       1.534056860622e+04 
       6.188608366878e-03       1.713617014982e+04 
       7.790996336704e-03       1.867361547174e+04 
       9.808283271472e-03       1.976494029700e+04 
       1.234789705653e-02       2.021031569306e+04 
       1.554508138669e-02       1.982582050545e+04 
       1.957009798132e-02       1.849401734703e+04 
       2.463728493167e-02       1.625154997575e+04 
       3.101404898478e-02       1.339956900836e+04 
       3.889597255358e-02       1.056144373946e+04 
       4.687142712020e-02       8.610808612254e+03 
       5.263963546513e-02       7.631700716316e+03 
       5.714353807744e-02       7.019097886307e+03 
       6.104954927461e-02       6.548072954735e+03 
       6.463300335798e-02       6.141709108453e+03 
       6.802969658960e-02       5.768091936750e+03 
       7.131705789209e-02       5.413269936254e+03 
       7.454408230814e-02       5.071997189695e+03 
       7.774430319055e-02       4.743704849376e+03 
       8.094214600181e-02       4.430338841192e+03 
       8.415634134108e-02       4.134981073862e+03 
       8.740189398258e-02       3.860871591370e+03 
       9.069128504399e-02       3.610690375573e+03 
       9.403524037414e-02       3.386050416488e+03 
       9.744324050201e-02       3.187182073697e+03 
       1.009238697497e-01       3.012796757401e+03 
       1.044850614452e-01       2.860121842687e+03 
       1.081342738017e-01       2.725103763444e+03 
       1.118786181900e-01       2.602780793679e+03 
       1.157249538880e-01       2.487821616593e+03 
       1.196799587015e-01       2.375199175341e+03 
       1.237501818908e-01       2.260920221496e+03 
       1.279420839384e-01       2.142673350006e+03 
       1.322620664454e-01       2.020222486006e+03 
       1.367164946213e-01       1.895393773790e+03 
       1.413117142847e-01       1.771594916397e+03 
       1.460540649240e-01       1.652946416638e+03 
       1.509498901286e-01       1.543235448092e+03 
       1.560055465426e-01       1.444966705542e+03 
       1.612274123904e-01       1.358756375852e+03 
       1.666218965613e-01       1.283222596354e+03 
       1.721954491993e-01       1.215411559149e+03 
       1.779545747199e-01       1.151679001858e+03 
       1.839058481594e-01       1.088808515281e+03 
       1.900559357500e-01       1.025009112537e+03 
       1.964116206101e-01       9.603902571307e+02 
       2.029798344345e-01       8.966732725876e+02 
       2.097676960823e-01       8.362455130823e+02 
       2.167825579789e-01       7.810021617599e+02 
       2.240320613018e-01       7.315246265723e+02 
       2.315242009966e-01       6.869574497286e+02 
       2.392674018006e-01       6.455930728754e+02 
       2.472706066429e-01       6.058246620699e+02 
       2.555433790616e-01       5.669284358702e+02 
       2.640960216601e-01       5.292278507589e+02 
       2.729397131390e-01       4.935914601663e+02 
       2.820866671277e-01       4.606730582865e+02 
       2.915503169591e-01       4.304503381048e+02 
       3.013455317348e-01       4.023405597141e+02 
       3.114888706351e-01       3.757079797871e+02 
       3.219988845482e-01       3.502959717616e+02 
       3.328964769423e-01       3.262406594046e+02 
       3.442053397358e-01       3.037418528896e+02 
       3.559524851657e-01       2.827731466803e+02 
       3.681689018872e-01       2.631025731205e+02 
       3.808903736896e-01       2.445214227493e+02 
       3.941585136510e-01       2.269767650941e+02 
       4.080220874416e-01       2.104838184651e+02 
       4.225387302541e-01       1.949913632028e+02 
       4.377772080331e-01       1.803876135078e+02 
       4.538204445371e-01       1.665907078585e+02 
       4.707696470268e-01       1.535629692591e+02 
       4.887500426387e-01       1.412552140900e+02 
       5.079190347814e-01       1.295978783700e+02 
       5.284780979901e-01       1.185325020137e+02 
       5.506906337294e-01       1.080073016262e+02 
       5.749096822062e-01       9.795938698600e+01 
       6.016226271279e-01       8.832496189472e+01 
       6.315266555753e-01       7.903584225746e+01 
       6.656631114675e-01       7.001122766276e+01 
       7.056722270697e-01       6.115776326274e+01 
       7.543126468840e-01       5.235782340106e+01 
       8.166085583735e-01       4.346611086274e+01 
       9.025503061859e-01       3.431330607591e+01 
       1.033092919061e+00       2.485511785439e+01 
       1.244846193547e+00       1.584090180723e+01 
       1.557013927554e+00       9.154073916356e+00 
       1.959783163304e+00       5.167341640482e+00 
       2.467217809029e+00       2.894075848866e+00 
       3.106043192265e+00       1.610077670699e+00 
       3.910276704872e+00       8.903018068528e-01 
       4.922746710910e+00       4.895666654083e-01 
       6.197370930190e+00       2.678383600735e-01 
       7.802027750331e+00       1.458475438117e-01 
       9.822170998415e+00       7.907658274394e-02 
       1.236538066889e+01       4.270278855720e-02 
