# Matter power spectrum P(k) at redshift z=2.5
# for k=2.20982e-07 to 11.0882 h/Mpc,
# number of wavenumbers equal to 139
#    1:k (h/Mpc)              2:P (Mpc/h)^3        
       2.209818126150e-07       7.582618579692e-02 
       2.781996194453e-07       9.511504339720e-02 
       3.502325704712e-07       1.193106495065e-01 
       4.409166830042e-07       1.496611951491e-01 
       5.550812167180e-07       1.877323893825e-01 
       6.988058493359e-07       2.354882303088e-01 
       8.797444416394e-07       2.953923224058e-01 
       1.107532633464e-06       3.705349677650e-01 
       1.394300976660e-06       4.647925863646e-01 
       1.755320931206e-06       5.830276902342e-01 
       2.209818126150e-06       7.313397260508e-01 
       2.781996194453e-06       9.173797260423e-01 
       3.502325704712e-06       1.150744997866e+00 
       4.409166830042e-06       1.443474209464e+00 
       5.550812167180e-06       1.810668401116e+00 
       6.988058493359e-06       2.271269946532e+00 
       8.797444416394e-06       2.849039612835e+00 
       1.107532633464e-05       3.573782065000e+00 
       1.394300976660e-05       4.482882907185e+00 
       1.755320931206e-05       5.623236297964e+00 
       2.209818126150e-05       7.053662100148e+00 
       2.781996194453e-05       8.847936254857e+00 
       3.502325704712e-05       1.109858876323e+01 
       4.409166830042e-05       1.392166131227e+01 
       5.550812167180e-05       1.746266223416e+01 
       6.988058493359e-05       2.190401072839e+01 
       8.797444416394e-05       2.747432392776e+01 
       1.107532633464e-04       3.445996595524e+01 
       1.394300976660e-04       4.321933634099e+01 
       1.755320931206e-04       5.420040288385e+01 
       2.209818126150e-04       6.796193190125e+01 
       2.781996194453e-04       8.519864394868e+01 
       3.502325704712e-04       1.067699613400e+02 
       4.409166830042e-04       1.337308617072e+02 
       5.550812167180e-04       1.673613135556e+02 
       6.988058493359e-04       2.091877631260e+02 
       8.797444416394e-04       2.609869437626e+02 
       1.107532633464e-03       3.247611040004e+02 
       1.394300976660e-03       4.026754567486e+02 
       1.755320931206e-03       4.969408648454e+02 
       2.209818126150e-03       6.095819446935e+02 
       2.781996194453e-03       7.420093219047e+02 
       3.502325704712e-03       8.944419863084e+02 
       4.409166830042e-03       1.065203362274e+03 
       5.550812167180e-03       1.249862817283e+03 
       6.988058493359e-03       1.440379117938e+03 
       8.797444416394e-03       1.624419005742e+03 
       1.107532633464e-02       1.785025065019e+03 
       1.394300976660e-02       1.901024190964e+03 
       1.755320931206e-02       1.948903485163e+03 
       2.209818120745e-02       1.907681319598e+03 
       2.781990641844e-02       1.768778886460e+03 
       3.501344543710e-02       1.550214735907e+03 
       4.368651023315e-02       1.310795376730e+03 
       5.149496865168e-02       1.145864508205e+03 
       5.709276132700e-02       1.053114513825e+03 
       6.162708132651e-02       9.881967529821e+02 
       6.563751988856e-02       9.352622264968e+02 
       6.935764334022e-02       8.881801062317e+02 
       7.290814430662e-02       8.441681455002e+02 
       7.636016227362e-02       8.019185983405e+02 
       7.975983087451e-02       7.608977356272e+02 
       8.313933595616e-02       7.210207111807e+02 
       8.652249121086e-02       6.824674596432e+02 
       8.992780052258e-02       6.455581853620e+02 
       9.337025587211e-02       6.106581963279e+02 
       9.686245058042e-02       5.781017224721e+02 
       1.004152990916e-01       5.481312941923e+02 
       1.040385192212e-01       5.208534377410e+02 
       1.077409649063e-01       4.962117798883e+02 
       1.115308614370e-01       4.739794264886e+02 
       1.154159750538e-01       4.537720212247e+02 
       1.194037371383e-01       4.350827522090e+02 
       1.235013362193e-01       4.173392519537e+02 
       1.277157866788e-01       3.999785415842e+02 
       1.320539802959e-01       3.825315979615e+02 
       1.365227249871e-01       3.647026733665e+02 
       1.411287739315e-01       3.464242578056e+02 
       1.458788474959e-01       3.278696111488e+02 
       1.507796498590e-01       3.094121341645e+02 
       1.558378818894e-01       2.915356752399e+02 
       1.610602516056e-01       2.747144285969e+02 
       1.664534834005e-01       2.592926643445e+02 
       1.720243271178e-01       2.453960624304e+02 
       1.777795680080e-01       2.328999483034e+02 
       1.837260385567e-01       2.214665193060e+02 
       1.898706331529e-01       2.106464703801e+02 
       1.962203265509e-01       2.000199836228e+02 
       2.027821970677e-01       1.893322046600e+02 
       2.095634554547e-01       1.785697292324e+02 
       2.165714803805e-01       1.679409802268e+02 
       2.238138614777e-01       1.577643697320e+02 
       2.312984509362e-01       1.483143358849e+02 
       2.390334246858e-01       1.396980563279e+02 
       2.470273543090e-01       1.318205069261e+02 
       2.552892909769e-01       1.244516515116e+02 
       2.638288629304e-01       1.173571682890e+02 
       2.726563883404e-01       1.104183748010e+02 
       2.817830058251e-01       1.036708256965e+02 
       2.912208254917e-01       9.724259688188e+01 
       3.009831041619e-01       9.124219899192e+01 
       3.110844494870e-01       8.567916124091e+01 
       3.215410590450e-01       8.046985894203e+01 
       3.323710023454e-01       7.551203155201e+01 
       3.435945561061e-01       7.075865081372e+01 
       3.552346064409e-01       6.622949161761e+01 
       3.673171360206e-01       6.196149668009e+01 
       3.798718203400e-01       5.795640747039e+01 
       3.929327656342e-01       5.417758289355e+01 
       4.065394328351e-01       5.058785897321e+01 
       4.207378088891e-01       4.717693704928e+01 
       4.355819113746e-01       4.394933331374e+01 
       4.511357488095e-01       4.089866655179e+01 
       4.674759140961e-01       3.800575470652e+01 
       4.846950735484e-01       3.525564572775e+01 
       5.029067483606e-01       3.264218005457e+01 
       5.222520036631e-01       3.015717957179e+01 
       5.429090255147e-01       2.778773290975e+01 
       5.651071978379e-01       2.552281925807e+01 
       5.891484256344e-01       2.335256199024e+01 
       6.154405762568e-01       2.126469241884e+01 
       6.445520901315e-01       1.924600642504e+01 
       6.773054953268e-01       1.728184937014e+01 
       7.149467525463e-01       1.535460350374e+01 
       7.594727703328e-01       1.344240444212e+01 
       8.143145304444e-01       1.151684202813e+01 
       8.858787686908e-01       9.540114642156e+00 
       9.871981558882e-01       7.470187017613e+00 
       1.145311893012e+00       5.318097760775e+00 
       1.399916854769e+00       3.335917021067e+00 
       1.757463766357e+00       1.948608465788e+00 
       2.212396752261e+00       1.120728151618e+00 
       2.785241909092e+00       6.392571360334e-01 
       3.506411816922e+00       3.619427751081e-01 
       4.414310940539e+00       2.035592971840e-01 
       5.557288218605e+00       1.137864291860e-01 
       6.996211359066e+00       6.325133749301e-02 
       8.807708266211e+00       3.498101256028e-02 
       1.108824775600e+01       1.925568269969e-02 
