# Matter power spectrum P(k) at redshift z=2.5
# for k=2.35834e-07 to 11.8318 h/Mpc,
# number of wavenumbers equal to 139
#    1:k (h/Mpc)              2:P (Mpc/h)^3        
       2.358337711875e-07       8.617384907504e-02 
       2.968971275072e-07       1.072767212384e-01 
       3.737713385075e-07       1.335474165030e-01 
       4.705502362474e-07       1.662514685925e-01 
       5.923876499376e-07       2.069643241061e-01 
       7.457718661395e-07       2.576472362450e-01 
       9.388711536842e-07       3.207417439185e-01 
       1.181968753774e-06       3.992872871406e-01 
       1.488010500072e-06       4.970676251671e-01 
       1.873294231557e-06       6.187931102680e-01 
       2.358337711875e-06       7.703275969256e-01 
       2.968971275072e-06       9.589709169827e-01 
       3.737713385075e-06       1.193810526722e+00 
       4.705502362474e-06       1.486159263870e+00 
       5.923876499376e-06       1.850100293280e+00 
       7.457718661395e-06       2.303165485063e+00 
       9.388711536842e-06       2.867179879365e+00 
       1.181968753774e-05       3.569312869640e+00 
       1.488010500072e-05       4.443386661711e+00 
       1.873294231557e-05       5.531504848027e+00 
       2.358337711875e-05       6.886079212259e+00 
       2.968971275072e-05       8.572351699365e+00 
       3.737713385075e-05       1.067153167624e+01 
       4.705502362474e-05       1.328469691737e+01 
       5.923876499376e-05       1.653764092304e+01 
       7.457718661395e-05       2.058688960878e+01 
       9.388711536842e-05       2.562715665349e+01 
       1.181968753774e-04       3.190055621954e+01 
       1.488010500072e-04       3.970793786315e+01 
       1.873294231557e-04       4.942273565639e+01 
       2.358337711875e-04       6.150770118678e+01 
       2.968971275072e-04       7.653475826434e+01 
       3.737713385075e-04       9.520787186490e+01 
       4.705502362474e-04       1.183881017920e+02 
       5.923876499376e-04       1.471187172648e+02 
       7.457718661395e-04       1.826462988943e+02 
       9.388711536842e-04       2.264315553860e+02 
       1.181968753774e-03       2.801423667255e+02 
       1.488010500072e-03       3.456217365883e+02 
       1.873294231557e-03       4.248172360065e+02 
       2.358337711875e-03       5.196293622230e+02 
       2.968971275072e-03       6.316151941875e+02 
       3.737713385075e-03       7.615571543530e+02 
       4.705502362474e-03       9.088969269547e+02 
       5.923876499376e-03       1.070968806462e+03 
       7.457718661395e-03       1.241453723090e+03 
       9.388711536842e-03       1.411686048021e+03 
       1.181968753774e-02       1.566655653716e+03 
       1.488010500072e-02       1.686462744392e+03 
       1.873294231554e-02       1.746867643682e+03 
       2.358337690978e-02       1.723818902301e+03 
       2.968955792626e-02       1.604541392348e+03 
       3.735617193060e-02       1.405431844699e+03 
       4.637119124615e-02       1.192714226564e+03 
       5.393351901545e-02       1.060195353681e+03 
       5.942489769055e-02       9.876741187058e+02 
       6.395943420560e-02       9.378914729650e+02 
       6.801101185851e-02       8.977559964427e+02 
       7.179135277721e-02       8.617937683126e+02 
       7.541271299256e-02       8.273088238873e+02 
       7.894248538378e-02       7.929189247767e+02 
       8.242497908515e-02       7.580020412859e+02 
       8.589144463389e-02       7.224402624339e+02 
       8.936521143554e-02       6.864705293755e+02 
       9.286454497164e-02       6.505743382938e+02 
       9.640434095670e-02       6.153803651581e+02 
       9.999718276479e-02       5.815718749764e+02 
       1.036540296201e-01       5.497995340536e+02 
       1.073846801822e-01       5.206029237629e+02 
       1.111980938538e-01       4.943458666855e+02 
       1.151026187562e-01       4.711693939831e+02 
       1.191061565772e-01       4.509657613421e+02 
       1.232162835571e-01       4.333762603039e+02 
       1.274403402642e-01       4.178163390338e+02 
       1.317854987025e-01       4.035324458451e+02 
       1.362588126826e-01       3.896926573091e+02 
       1.408672556824e-01       3.755079229055e+02 
       1.456177493141e-01       3.603691664614e+02 
       1.505171847669e-01       3.439724975374e+02 
       1.555724391033e-01       3.263963380459e+02 
       1.607903879578e-01       3.080974951963e+02 
       1.661779159713e-01       2.898132227119e+02 
       1.717419261518e-01       2.723853776413e+02 
       1.774893492680e-01       2.565508591110e+02 
       1.834271543197e-01       2.427540420947e+02 
       1.895623611008e-01       2.310305528333e+02 
       1.959020558427e-01       2.209940979154e+02 
       2.024534109163e-01       2.119393514889e+02 
       2.092237095562e-01       2.030509146132e+02 
       2.162203765701e-01       1.936716807912e+02 
       2.234510159968e-01       1.835384217866e+02 
       2.309234566934e-01       1.728738542234e+02 
       2.386458068682e-01       1.622713250957e+02 
       2.466265186434e-01       1.524125969287e+02 
       2.548744638391e-01       1.437529775911e+02 
       2.633990223427e-01       1.363250273506e+02 
       2.722101846667e-01       1.297517234835e+02 
       2.813186706516e-01       1.234644917935e+02 
       2.907360667352e-01       1.170212041883e+02 
       3.004749848577e-01       1.103436583995e+02 
       3.105492469164e-01       1.037161429777e+02 
       3.209740998153e-01       9.754304466023e+01 
       3.317664676430e-01       9.204615658285e+01 
       3.429452494890e-01       8.712527776943e+01 
       3.545316740354e-01       8.247522551281e+01 
       3.665497255958e-01       7.785295396722e+01 
       3.790266610601e-01       7.326165781642e+01 
       3.919936437788e-01       6.888840544375e+01 
       4.054865295608e-01       6.487533372113e+01 
       4.195468528618e-01       6.117404717728e+01 
       4.342230797302e-01       5.762862826839e+01 
       4.495722210481e-01       5.416563591160e+01 
       4.656619396649e-01       5.084768601821e+01 
       4.825733457522e-01       4.774033015219e+01 
       5.004047688297e-01       4.480562216267e+01 
       5.192769444019e-01       4.197420686941e+01 
       5.393402970961e-01       3.924786631600e+01 
       5.607854125298e-01       3.665212131427e+01 
       5.838585042032e-01       3.416009573793e+01 
       6.088849728434e-01       3.174359338867e+01 
       6.363065938282e-01       2.940494324911e+01 
       6.667427056465e-01       2.712496376844e+01 
       7.010959233280e-01       2.488149430165e+01 
       7.407455912452e-01       2.265506117969e+01 
       7.879265265945e-01       2.041228253301e+01 
       8.465297941477e-01       1.811062318676e+01 
       9.239320496529e-01       1.568786146617e+01 
       1.035316302078e+00       1.306721216545e+01 
       1.211619590206e+00       1.023345863288e+01 
       1.491938839449e+00       7.512628175556e+00 
       1.875253818103e+00       5.442327643272e+00 
       2.360749101024e+00       3.988470058082e+00 
       2.972006832026e+00       2.944659284382e+00 
       3.741534924760e+00       2.174159444688e+00 
       4.710313395896e+00       1.593486907908e+00 
       5.929933231608e+00       1.151428329274e+00 
       7.465343635514e+00       8.156064185765e-01 
       9.398310810524e+00       5.639922959321e-01 
       1.183177230731e+01       3.797875953392e-01 
