# Matter power spectrum P(k) at redshift z=2
# for k=2.0199e-07 to 10.1348 h/Mpc,
# number of wavenumbers equal to 139
#    1:k (h/Mpc)              2:P (Mpc/h)^3        
       2.019895137220e-07       1.607047423045e-01 
       2.542897317406e-07       2.015295301323e-01 
       3.201318052465e-07       2.527252831332e-01 
       4.030220647484e-07       3.169265996500e-01 
       5.073747188255e-07       3.974373605047e-01 
       6.387469268313e-07       4.984007511063e-01 
       8.041347378934e-07       6.250124744081e-01 
       1.012345656040e-06       7.837881279962e-01 
       1.274467671909e-06       9.828985036975e-01 
       1.604459738676e-06       1.232590064822e+00 
       2.019895137220e-06       1.545712237532e+00 
       2.542897317406e-06       1.938378648893e+00 
       3.201318052465e-06       2.430796337518e+00 
       4.030220647484e-06       3.048305596682e+00 
       5.073747188255e-06       3.822683946535e+00 
       6.387469268313e-06       4.793781303358e+00 
       8.041347378934e-06       6.011570424210e+00 
       1.012345656040e-05       7.538718005137e+00 
       1.274467671909e-05       9.453808475082e+00 
       1.604459738676e-05       1.185538582937e+01 
       2.019895137220e-05       1.486702041598e+01 
       2.542897317406e-05       1.864365926061e+01 
       3.201318052465e-05       2.337958242374e+01 
       4.030220647484e-05       2.931836631224e+01 
       5.073747188255e-05       3.676534971662e+01 
       6.387469268313e-05       4.610321063187e+01 
       8.041347378934e-05       5.781138889951e+01 
       1.012345656040e-04       7.249022316018e+01 
       1.274467671909e-04       9.089078606805e+01 
       1.604459738676e-04       1.139514483342e+02 
       2.019895137220e-04       1.428420751180e+02 
       2.542897317406e-04       1.790162622085e+02 
       3.201318052465e-04       2.242708221416e+02 
       4.030220647484e-04       2.808093497714e+02 
       5.073747188255e-04       3.513026644693e+02 
       6.387469268313e-04       4.389334019057e+02 
       8.041347378934e-04       5.474069927787e+02 
       1.012345656040e-03       6.809102438248e+02 
       1.274467671909e-03       8.439970325724e+02 
       1.604459738676e-03       1.041343845694e+03 
       2.019895137220e-03       1.277228101824e+03 
       2.542897317406e-03       1.554627647030e+03 
       3.201318052465e-03       1.874036133173e+03 
       4.030220647484e-03       2.231918157860e+03 
       5.073747188255e-03       2.618762754878e+03 
       6.387469268313e-03       3.015465115710e+03 
       8.041347378934e-03       3.396748004010e+03 
       1.012345656040e-02       3.722199224047e+03 
       1.274467671909e-02       3.940651512463e+03 
       1.604459738675e-02       3.992915507740e+03 
       2.019895130565e-02       3.825041742092e+03 
       2.542890975760e-02       3.418729674056e+03 
       3.200264146452e-02       2.837173229628e+03 
       3.988967652284e-02       2.263495111366e+03 
       4.687519709893e-02       1.929235720797e+03 
       5.189299514908e-02       1.771569964886e+03 
       5.597602358209e-02       1.675586420463e+03 
       5.959598438563e-02       1.603292367435e+03 
       6.295850825640e-02       1.539708136526e+03 
       6.617048885211e-02       1.477696271681e+03 
       6.929520086650e-02       1.413704440851e+03 
       7.237380815682e-02       1.346245258140e+03 
       7.543510121624e-02       1.275215063290e+03 
       7.850042537886e-02       1.201495958922e+03 
       8.158639539682e-02       1.126648377942e+03 
       8.470649280811e-02       1.052628637277e+03 
       8.787205683075e-02       9.815171072030e+02 
       9.109292600557e-02       9.152655552930e+02 
       9.437786862640e-02       8.554806865615e+02 
       9.773488004200e-02       8.032586934685e+02 
       1.011713930046e-01       7.590773042606e+02 
       1.046944294300e-01       7.227442711592e+02 
       1.083107115851e-01       6.933986005717e+02 
       1.120267444903e-01       6.695650503333e+02 
       1.158488774693e-01       6.492742447229e+02 
       1.197833503302e-01       6.302671934717e+02 
       1.238363280748e-01       6.102957710885e+02 
       1.280139269949e-01       5.874983825101e+02 
       1.323222343189e-01       5.607821382757e+02 
       1.367673231161e-01       5.300993326612e+02 
       1.413552638570e-01       4.965020487171e+02 
       1.460921338267e-01       4.619127113344e+02 
       1.509840254583e-01       4.286492670927e+02 
       1.560370545689e-01       3.988394565149e+02 
       1.612573694285e-01       3.738952507953e+02 
       1.666511615578e-01       3.541799856526e+02 
       1.722246791340e-01       3.389296028835e+02 
       1.779842438653e-01       3.264446990508e+02 
       1.839362721888e-01       3.145531346278e+02 
       1.900873016412e-01       3.012888095703e+02 
       1.964440232521e-01       2.855950841426e+02 
       2.030133208230e-01       2.677311793052e+02 
       2.098023179841e-01       2.491147170382e+02 
       2.168184339761e-01       2.316267180819e+02 
       2.240694491949e-01       2.167307951856e+02 
       2.315635816779e-01       2.048458292137e+02 
       2.393095759178e-01       1.952376051822e+02 
       2.473168056822e-01       1.864570973692e+02 
       2.555953929160e-01       1.771427024046e+02 
       2.641563453531e-01       1.667793105174e+02 
       2.730117161796e-01       1.559159106264e+02 
       2.821747900576e-01       1.456593387964e+02 
       2.916603010835e-01       1.368286762197e+02 
       3.014846899332e-01       1.294108027652e+02 
       3.116664096859e-01       1.226846640607e+02 
       3.222262928115e-01       1.158774382273e+02 
       3.331879958693e-01       1.087999443315e+02 
       3.445785440281e-01       1.018894237568e+02 
       3.564290052400e-01       9.565156431160e+01 
       3.687753347760e-01       9.012327779784e+01 
       3.816594463899e-01       8.491731544920e+01 
       3.951305890102e-01       7.973162687117e+01 
       4.092471413997e-01       7.466668166207e+01 
       4.240789879217e-01       6.996768755107e+01 
       4.397107168954e-01       6.562574612393e+01 
       4.562460070266e-01       6.144074684118e+01 
       4.738137690112e-01       5.736673568539e+01 
       4.925769471127e-01       5.350696763667e+01 
       5.127454704188e-01       4.984162825932e+01 
       5.345958954682e-01       4.628026312641e+01 
       5.585022565567e-01       4.283824418720e+01 
       5.849865308077e-01       3.950462008532e+01 
       6.148052263735e-01       3.622751423363e+01 
       6.491065539757e-01       3.299104351997e+01 
       6.897352356141e-01       2.974280720218e+01 
       7.398702246900e-01       2.642719701116e+01 
       8.054680012640e-01       2.295835738904e+01 
       8.986794813146e-01       1.922727717511e+01 
       1.044633673449e+00       1.518602124501e+01 
       1.279112963843e+00       1.121287152786e+01 
       1.606331101285e+00       8.113608077023e+00 
       2.022160482123e+00       5.937317078935e+00 
       2.545748802618e+00       4.381672442172e+00 
       3.204907859379e+00       3.237938688578e+00 
       4.034739946632e+00       2.378431119288e+00 
       5.079436648796e+00       1.724709447807e+00 
       6.394631874767e+00       1.227362596508e+00 
       8.050364566214e+00       8.532893185775e-01 
       1.013480852661e+01       5.778767351438e-01 
