# Matter power spectrum P(k) at redshift z=2.5
# for k=1.95156e-07 to 12.3288 h/Mpc,
# number of wavenumbers equal to 140
#    1:k (h/Mpc)              2:P (Mpc/h)^3        
       1.951560737766e-07       1.941674042266e-01 
       2.456869405434e-07       2.427875006137e-01 
       3.093015327960e-07       3.035822138592e-01 
       3.893875595438e-07       3.796001042129e-01 
       4.902098937462e-07       4.746531002245e-01 
       6.171376923500e-07       5.935076484704e-01 
       7.769303234755e-07       7.421237273375e-01 
       9.780973274167e-07       9.279537104282e-01 
       1.231351580693e-06       1.160316065426e+00 
       1.550179795787e-06       1.450862627634e+00 
       1.951560737766e-06       1.814162877673e+00 
       2.456869405434e-06       2.268434518950e+00 
       3.093015327960e-06       2.836456985910e+00 
       3.893875595438e-06       3.546713681401e+00 
       4.902098937462e-06       4.434820194517e+00 
       6.171376923500e-06       5.545310084640e+00 
       7.769303234755e-06       6.933867693192e+00 
       9.780973274167e-06       8.670119785999e+00 
       1.231351580693e-05       1.084112570427e+01 
       1.550179795787e-05       1.355574038758e+01 
       1.951560737766e-05       1.695006782900e+01 
       2.456869405434e-05       2.119427592393e+01 
       3.093015327960e-05       2.650110954357e+01 
       3.893875595438e-05       3.313651901219e+01 
       4.902098937462e-05       4.143291768135e+01 
       6.171376923500e-05       5.180569547884e+01 
       7.769303234755e-05       6.477374121690e+01 
       9.780973274167e-05       8.098485506194e+01 
       1.231351580693e-04       1.012470347755e+02 
       1.550179795787e-04       1.265666375226e+02 
       1.951560737766e-04       1.581942326561e+02 
       2.456869405434e-04       1.976783485694e+02 
       3.093015327960e-04       2.469258951475e+02 
       3.893875595438e-04       3.082652458877e+02 
       4.902098937462e-04       3.845031927761e+02 
       6.171376923500e-04       4.789602967922e+02 
       7.769303234755e-04       5.954627979419e+02 
       9.780973274167e-04       7.382685043049e+02 
       1.231351580693e-03       9.119086551763e+02 
       1.550179795787e-03       1.120902588888e+03 
       1.951560737766e-03       1.369193807768e+03 
       2.456869405434e-03       1.659140284926e+03 
       3.093015327960e-03       1.990215356436e+03 
       3.893875595438e-03       2.357444095709e+03 
       4.902098937462e-03       2.749383123005e+03 
       6.171376923500e-03       3.145281920905e+03 
       7.769303234755e-03       3.515980035573e+03 
       9.780973274167e-03       3.818578497483e+03 
       1.231351580693e-02       3.998840965779e+03 
       1.550179795787e-02       3.994872370433e+03 
       1.951560734791e-02       3.751815427281e+03 
       2.456865962277e-02       3.255793820817e+03 
       3.092344992525e-02       2.584874342721e+03 
       3.863779297315e-02       1.944856307940e+03 
       4.576329915953e-02       1.585145262416e+03 
       5.086241444486e-02       1.436334538293e+03 
       5.496269737661e-02       1.358329855080e+03 
       5.857525312793e-02       1.306078363854e+03 
       6.191893183185e-02       1.262360993210e+03 
       6.510575327005e-02       1.218922031759e+03 
       6.820130013385e-02       1.171494638718e+03 
       7.124788912472e-02       1.118133570761e+03 
       7.427492675487e-02       1.058517760963e+03 
       7.730409996773e-02       9.935540987040e+02 
       8.035221403215e-02       9.250552894928e+02 
       8.343285267747e-02       8.554152285173e+02 
       8.655740304860e-02       7.872715124133e+02 
       8.973571683065e-02       7.231777932175e+02 
       9.297655232732e-02       6.653200360413e+02 
       9.628787899968e-02       6.153058607699e+02 
       9.967709246698e-02       5.740386888876e+02 
       1.031511693532e-01       5.416681114203e+02 
       1.067167805826e-01       5.175938537459e+02 
       1.103803752634e-01       5.005027066060e+02 
       1.141482433054e-01       4.884392096513e+02 
       1.180265623867e-01       4.789403006150e+02 
       1.220214332520e-01       4.692825912952e+02 
       1.261389062499e-01       4.568739201634e+02 
       1.303850013067e-01       4.397567235426e+02 
       1.347657230589e-01       4.170993101666e+02 
       1.392870725541e-01       3.894838798051e+02 
       1.439550567188e-01       3.588242285675e+02 
       1.487756966579e-01       3.278799235796e+02 
       1.537550357646e-01       2.995170031704e+02 
       1.588991485642e-01       2.759766762302e+02 
       1.642141511808e-01       2.583721762240e+02 
       1.697062142959e-01       2.464883486815e+02 
       1.753815794529e-01       2.388497374558e+02 
       1.812465795523e-01       2.330445469500e+02 
       1.873076643775e-01       2.263576202783e+02 
       1.935714319904e-01       2.166804384599e+02 
       2.000446668491e-01       2.033785465011e+02 
       2.067343855256e-01       1.875852790847e+02 
       2.136478909524e-01       1.716220658195e+02 
       2.207928362136e-01       1.578414481658e+02 
       2.281772990299e-01       1.475659180405e+02 
       2.358098682830e-01       1.406098702988e+02 
       2.436997442055e-01       1.354764085778e+02 
       2.518568542466e-01       1.301400991059e+02 
       2.602919871461e-01       1.231716689065e+02 
       2.690169484438e-01       1.145816533220e+02 
       2.780447415765e-01       1.056819580535e+02 
       2.873897799319e-01       9.801604237349e+01 
       2.970681368442e-01       9.224357020265e+01 
       3.070978426650e-01       8.779241766089e+01 
       3.174992409171e-01       8.343660164080e+01 
       3.282954194364e-01       7.836120644223e+01 
       3.395127377298e-01       7.281580548884e+01 
       3.511814791653e-01       6.769241125131e+01 
       3.633366669982e-01       6.351042793031e+01 
       3.760190980653e-01       5.993730114388e+01 
       3.892766695276e-01       5.630288733301e+01 
       4.031661058995e-01       5.244295492030e+01 
       4.177552416704e-01       4.878111112294e+01 
       4.331260889249e-01       4.559582911187e+01 
       4.493790363731e-01       4.263509713681e+01 
       4.666387158942e-01       3.962998119621e+01 
       4.850623894604e-01       3.672819599014e+01 
       5.048522560241e-01       3.407225607176e+01 
       5.262740573815e-01       3.149911432663e+01 
       5.496861922369e-01       2.896808460831e+01 
       5.755871356081e-01       2.656246962573e+01 
       6.046963882978e-01       2.419603573025e+01 
       6.381005338609e-01       2.186938027596e+01 
       6.775345113496e-01       1.954925400882e+01 
       7.259654880751e-01       1.719925171820e+01 
       7.889046318319e-01       1.476323487755e+01 
       8.775119592198e-01       1.217521416528e+01 
       1.015036366073e+00       9.408478704438e+00 
       1.237148160076e+00       6.708085124863e+00 
       1.552216937620e+00       4.635162519709e+00 
       1.953985925319e+00       3.246798392470e+00 
       2.459921778042e+00       2.310221825853e+00 
       3.096858036774e+00       1.660652761719e+00 
       3.898713279213e+00       1.197574126986e+00 
       4.908189220501e+00       8.599391884707e-01 
       6.179044135583e+00       6.104352219378e-01 
       7.778955682883e+00       4.257148324525e-01 
       9.793124986402e+00       2.903501103559e-01 
       1.232881390626e+01       1.931924476737e-01 
