# Matter power spectrum P(k) at redshift z=1
# for k=2.35834e-07 to 11.8318 h/Mpc,
# number of wavenumbers equal to 139
#    1:k (h/Mpc)              2:P (Mpc/h)^3        
       2.358337711875e-07       2.520969570073e-01 
       2.968971275072e-07       3.138322736511e-01 
       3.737713385075e-07       3.906857786700e-01 
       4.705502362474e-07       4.863597227104e-01 
       5.923876499376e-07       6.054629899777e-01 
       7.457718661395e-07       7.537331210964e-01 
       9.388711536842e-07       9.383127063959e-01 
       1.181968753774e-06       1.168093463813e+00 
       1.488010500072e-06       1.454144576821e+00 
       1.873294231557e-06       1.810245925737e+00 
       2.358337711875e-06       2.253551898020e+00 
       2.968971275072e-06       2.805417752909e+00 
       3.737713385075e-06       3.492428343551e+00 
       4.705502362474e-06       4.347678743922e+00 
       5.923876499376e-06       5.412368449507e+00 
       7.457718661395e-06       6.737785912795e+00 
       9.388711536842e-06       8.387778935345e+00 
       1.181968753774e-05       1.044182976752e+01 
       1.488010500072e-05       1.299888275819e+01 
       1.873294231557e-05       1.618210833774e+01 
       2.358337711875e-05       2.014483166806e+01 
       2.968971275072e-05       2.507790924233e+01 
       3.737713385075e-05       3.121890423334e+01 
       4.705502362474e-05       3.886349361676e+01 
       5.923876499376e-05       4.837963890860e+01 
       7.457718661395e-05       6.022516839419e+01 
       9.388711536842e-05       7.496954961369e+01 
       1.181968753774e-04       9.332076734976e+01 
       1.488010500072e-04       1.161583417519e+02 
       1.873294231557e-04       1.445735739766e+02 
       2.358337711875e-04       1.799179966722e+02 
       2.968971275072e-04       2.238605602405e+02 
       3.737713385075e-04       2.784530287580e+02 
       4.705502362474e-04       3.462010449067e+02 
       5.923876499376e-04       4.301351422027e+02 
       7.457718661395e-04       5.338720700035e+02 
       9.388711536842e-04       6.616534843306e+02 
       1.181968753774e-03       8.183454366838e+02 
       1.488010500072e-03       1.009364507290e+03 
       1.873294231557e-03       1.240444327015e+03 
       2.358337711875e-03       1.517128069100e+03 
       2.968971275072e-03       1.843947207670e+03 
       3.737713385075e-03       2.223194428791e+03 
       4.705502362474e-03       2.653235255641e+03 
       5.923876499376e-03       3.126288412743e+03 
       7.457718661395e-03       3.619497245942e+03 
       9.388711536842e-03       4.114521216638e+03 
       1.181968753774e-02       4.564428397546e+03 
       1.488010500072e-02       4.911122186225e+03 
       1.873294231554e-02       5.083999707692e+03 
       2.358337690978e-02       5.013307839690e+03 
       2.968955792626e-02       4.662618710757e+03 
       3.735617193060e-02       4.080826638179e+03 
       4.637119124615e-02       3.461298523434e+03 
       5.393351901545e-02       3.075897152809e+03 
       5.942489769055e-02       2.864957010846e+03 
       6.395943420560e-02       2.720085284585e+03 
       6.801101185851e-02       2.603290022656e+03 
       7.179135277721e-02       2.498729211500e+03 
       7.541271299256e-02       2.398628057419e+03 
       7.894248538378e-02       2.299016892204e+03 
       8.242497908515e-02       2.198118334090e+03 
       8.589144463389e-02       2.095598856229e+03 
       8.936521143554e-02       1.992133314825e+03 
       9.286454497164e-02       1.889084674326e+03 
       9.640434095670e-02       1.788223892988e+03 
       9.999718276479e-02       1.691466480507e+03 
       1.036540296201e-01       1.600625808413e+03 
       1.073846801822e-01       1.517193400572e+03 
       1.111980938538e-01       1.442159131902e+03 
       1.151026187562e-01       1.375882498643e+03 
       1.191061565772e-01       1.318024003331e+03 
       1.232162835571e-01       1.267544552775e+03 
       1.274403402642e-01       1.222782102150e+03 
       1.317854987025e-01       1.181616383180e+03 
       1.362588126826e-01       1.141726447501e+03 
       1.408672556824e-01       1.100929332481e+03 
       1.456177493141e-01       1.057557492865e+03 
       1.505171847669e-01       1.010797785552e+03 
       1.555724391033e-01       9.608934606998e+02 
       1.607903879578e-01       9.091223438975e+02 
       1.661779159713e-01       8.575185969078e+02 
       1.717419261518e-01       8.083858599895e+02 
       1.774893492680e-01       7.637233800499e+02 
       1.834271543197e-01       7.247177882159e+02 
       1.895623611008e-01       6.914344319653e+02 
       1.959020558427e-01       6.627935718994e+02 
       2.024534109163e-01       6.368629525304e+02 
       2.092237095562e-01       6.114332889893e+02 
       2.162203765701e-01       5.847435945004e+02 
       2.234510159968e-01       5.561056971649e+02 
       2.309234566934e-01       5.261351164901e+02 
       2.386458068682e-01       4.964271806805e+02 
       2.466265186434e-01       4.687954505826e+02 
       2.548744638391e-01       4.444343352671e+02 
       2.633990223427e-01       4.234075398896e+02 
       2.722101846667e-01       4.046979873579e+02 
       2.813186706516e-01       3.867971990715e+02 
       2.907360667352e-01       3.685459385027e+02 
       3.004749848577e-01       3.497481311549e+02 
       3.105492469164e-01       3.311517564088e+02 
       3.209740998153e-01       3.138059821976e+02 
       3.317664676430e-01       2.982744205184e+02 
       3.429452494890e-01       2.842840764347e+02 
       3.545316740354e-01       2.710398730648e+02 
       3.665497255958e-01       2.579166163443e+02 
       3.790266610601e-01       2.449241225691e+02 
       3.919936437788e-01       2.325371016980e+02 
       4.054865295608e-01       2.211088802018e+02 
       4.195468528618e-01       2.105081810831e+02 
       4.342230797302e-01       2.003368627733e+02 
       4.495722210481e-01       1.904084261673e+02 
       4.656619396649e-01       1.808755989926e+02 
       4.825733457522e-01       1.718945184584e+02 
       5.004047688297e-01       1.633641535634e+02 
       5.192769444019e-01       1.551083710119e+02 
       5.393402970961e-01       1.471255663294e+02 
       5.607854125298e-01       1.394694442735e+02 
       5.838585042032e-01       1.320656198550e+02 
       6.088849728434e-01       1.248359847306e+02 
       6.363065938282e-01       1.177723233441e+02 
       6.667427056465e-01       1.108114108067e+02 
       7.010959233280e-01       1.038771892613e+02 
       7.407455912452e-01       9.688946555814e+01 
       7.879265265945e-01       8.971845677221e+01 
       8.465297941477e-01       8.218143530959e+01 
       9.239320496529e-01       7.399099029264e+01 
       1.035316302078e+00       6.471882263632e+01 
       1.211619590206e+00       5.396555294074e+01 
       1.491938839449e+00       4.248140155360e+01 
       1.875253818103e+00       3.246751896101e+01 
       2.360749101024e+00       2.441478715292e+01 
       2.972006832026e+00       1.797042689960e+01 
       3.741534924760e+00       1.287867000137e+01 
       4.710313395896e+00       8.953745318613e+00 
       5.929933231608e+00       6.029410427005e+00 
       7.465343635514e+00       3.937074679332e+00 
       9.398310810524e+00       2.501540929892e+00 
       1.183177230731e+01       1.553493015526e+00 
