# Matter power spectrum P(k) at redshift z=1
# for k=1.71228e-07 to 10.8148 h/Mpc,
# number of wavenumbers equal to 140
#    1:k (h/Mpc)              2:P (Mpc/h)^3        
       1.712277291965e-07       9.131827330295e-01 
       2.155629394893e-07       1.139797475175e+00 
       2.713776623641e-07       1.422648761166e+00 
       3.416442353435e-07       1.775692208920e+00 
       4.301046096669e-07       2.216346651053e+00 
       5.414696228395e-07       2.766353562919e+00 
       6.816698679072e-07       3.452849765096e+00 
       8.581715191628e-07       4.309706324697e+00 
       1.080373933152e-06       5.379199715184e+00 
       1.360110198685e-06       6.714097683444e+00 
       1.712277291965e-06       8.380262732055e+00 
       2.155629394893e-06       1.045990165508e+01 
       2.713776623641e-06       1.305562143291e+01 
       3.416442353435e-06       1.629549153828e+01 
       4.301046096669e-06       2.033936231733e+01 
       5.414696228395e-06       2.538675097931e+01 
       6.816698679072e-06       3.168668383924e+01 
       8.581715191628e-06       3.954997959602e+01 
       1.080373933152e-05       4.936457801375e+01 
       1.360110198685e-05       6.161466699712e+01 
       1.712277291965e-05       7.690454527687e+01 
       2.155629394893e-05       9.598838511999e+01 
       2.713776623641e-05       1.198073380787e+02 
       3.416442353435e-05       1.495357640973e+02 
       4.301046096669e-05       1.866387655688e+02 
       5.414696228395e-05       2.329436688515e+02 
       6.816698679072e-05       2.907285950230e+02 
       8.581715191628e-05       3.628317342318e+02 
       1.080373933152e-04       4.527852431217e+02 
       1.360110198685e-04       5.649775264724e+02 
       1.712277291965e-04       7.048464873234e+02 
       2.155629394893e-04       8.791031707060e+02 
       2.713776623641e-04       1.095978642688e+03 
       3.416442353435e-04       1.365475363256e+03 
       4.301046096669e-04       1.699587532492e+03 
       5.414696228395e-04       2.112437162416e+03 
       6.816698679072e-04       2.620262432926e+03 
       8.581715191628e-04       3.241181020667e+03 
       1.080373933152e-03       3.994545579770e+03 
       1.360110198685e-03       4.899447679972e+03 
       1.712277291965e-03       5.971957384246e+03 
       2.155629394893e-03       7.221126305979e+03 
       2.713776623641e-03       8.643499964754e+03 
       3.416442353435e-03       1.021631926989e+04 
       4.301046096669e-03       1.188930072591e+04 
       5.414696228395e-03       1.357656999604e+04 
       6.816698679072e-03       1.514960892117e+04 
       8.581715191628e-03       1.643333722882e+04 
       1.080373933152e-02       1.720982851952e+04 
       1.360110198680e-02       1.724115535974e+04 
       1.712277265615e-02       1.633450585266e+04 
       2.155612450671e-02       1.447508480388e+04 
       2.711732372575e-02       1.200248818017e+04 
       3.356417941074e-02       9.743853579079e+03 
       3.881557865572e-02       8.510665050702e+03 
       4.266122437710e-02       7.870335316582e+03 
       4.586207218475e-02       7.441108162022e+03 
       4.873405132420e-02       7.096726882016e+03 
       5.142034297072e-02       6.785294440795e+03 
       5.399770097013e-02       6.482017369779e+03 
       5.651256853343e-02       6.175035651877e+03 
       5.899566267744e-02       5.860026610158e+03 
       6.146875002245e-02       5.537622935557e+03 
       6.394814344982e-02       5.211823772713e+03 
       6.644665731722e-02       4.888762871784e+03 
       6.897477177324e-02       4.575613634456e+03 
       7.154136200656e-02       4.279585704459e+03 
       7.415417420867e-02       4.007036916406e+03 
       7.682014695320e-02       3.762746363751e+03 
       7.954563437547e-02       3.549385594595e+03 
       8.233656477542e-02       3.367203662117e+03 
       8.519855544882e-02       3.213928344468e+03 
       8.813699704548e-02       3.084891031279e+03 
       9.115711620869e-02       2.973400144215e+03 
       9.426402241883e-02       2.871411296553e+03 
       9.746274315975e-02       2.770523112849e+03 
       1.007582503531e-01       2.663252017145e+03 
       1.041554802342e-01       2.544400060984e+03 
       1.076593483283e-01       2.412186648001e+03 
       1.112747608470e-01       2.268753203591e+03 
       1.150066235934e-01       2.119755055032e+03 
       1.188598493198e-01       1.973025056878e+03 
       1.228393643814e-01       1.836627014584e+03 
       1.269501154705e-01       1.716838766643e+03 
       1.311970771753e-01       1.616607458711e+03 
       1.355852610849e-01       1.534843444705e+03 
       1.401197271469e-01       1.466716541653e+03 
       1.448055979708e-01       1.404976056072e+03 
       1.496480767690e-01       1.342130990156e+03 
       1.546524696188e-01       1.272959731096e+03 
       1.598242127347e-01       1.196389032734e+03 
       1.651689054524e-01       1.115744823420e+03 
       1.706923496514e-01       1.037058617243e+03 
       1.764005963952e-01       9.661896275309e+02 
       1.823000006468e-01       9.061878730792e+02 
       1.883972850426e-01       8.561260657206e+02 
       1.946996138870e-01       8.118720277611e+02 
       2.012146787822e-01       7.684347706899e+02 
       2.079507976548e-01       7.227225997832e+02 
       2.149170294063e-01       6.750825028252e+02 
       2.221233070350e-01       6.285532451335e+02 
       2.295805928993e-01       5.863850515524e+02 
       2.373010608775e-01       5.497046777039e+02 
       2.452983116187e-01       5.169993186275e+02 
       2.535876289995e-01       4.856444065931e+02 
       2.621862884751e-01       4.541296386762e+02 
       2.711139315163e-01       4.230392799903e+02 
       2.803930251271e-01       3.939806493701e+02 
       2.900494321312e-01       3.677177084912e+02 
       3.001131273686e-01       3.435076470439e+02 
       3.106191085130e-01       3.201785265853e+02 
       3.216085700353e-01       2.974783861082e+02 
       3.331304383161e-01       2.760177197445e+02 
       3.452434106674e-01       2.561135627368e+02 
       3.580187105182e-01       2.373343806985e+02 
       3.715438816014e-01       2.192731488803e+02 
       3.859281248386e-01       2.020606058980e+02 
       4.013099865801e-01       1.858101999306e+02 
       4.178687389962e-01       1.702824874888e+02 
       4.358417586052e-01       1.553552524565e+02 
       4.555520380349e-01       1.410483646709e+02 
       4.774536096338e-01       1.272167906963e+02 
       5.022103401892e-01       1.137573205190e+02 
       5.308408117632e-01       1.005543965563e+02 
       5.650035468458e-01       8.744148096931e+01 
       6.076037347416e-01       7.421417109761e+01 
       6.641864080245e-01       6.060601203849e+01 
       7.462172457437e-01       4.637292582973e+01 
       8.767879028298e-01       3.186066774337e+01 
       1.082814174500e+00       1.934335377474e+01 
       1.361521774795e+00       1.115351549559e+01 
       1.714026851495e+00       6.357992341371e+00 
       2.157831872540e+00       3.596104935198e+00 
       2.716549378682e+00       2.019686441675e+00 
       3.419933045217e+00       1.127069442244e+00 
       4.305440617258e+00       6.252843020111e-01 
       5.420228602036e+00       3.450483203098e-01 
       6.823663524837e+00       1.894731624267e-01 
       8.590483412951e+00       1.035732090249e-01 
       1.081477786816e+01       5.637980755555e-02 
