# Matter power spectrum P(k) at redshift z=0.5
# for k=2.21134e-07 to 11.0957 h/Mpc,
# number of wavenumbers equal to 139
#    1:k (h/Mpc)              2:P (Mpc/h)^3        
       2.211340602511e-07       3.893202937234e-01 
       2.783912878633e-07       4.860680130506e-01 
       3.504738667133e-07       6.068579446220e-01 
       4.412204569751e-07       7.576646784764e-01 
       5.554636454894e-07       9.459475149821e-01 
       6.992872986344e-07       1.181019421444e+00 
       8.803505503958e-07       1.474507675731e+00 
       1.108295679180e-06       1.840928981340e+00 
       1.395261594302e-06       2.298407500284e+00 
       1.756530277167e-06       2.869571318792e+00 
       2.211340602511e-06       3.582671685651e+00 
       2.783912878633e-06       4.472980380188e+00 
       3.504738667133e-06       5.584534321278e+00 
       4.412204569751e-06       6.972313697552e+00 
       5.554636454894e-06       8.704961328058e+00 
       6.992872986344e-06       1.086817771100e+01 
       8.803505503958e-06       1.356895958865e+01 
       1.108295679180e-05       1.694089147695e+01 
       1.395261594302e-05       2.115075150755e+01 
       1.756530277167e-05       2.640675754028e+01 
       2.211340602511e-05       3.296885988941e+01 
       2.783912878633e-05       4.116158673283e+01 
       3.504738667133e-05       5.139007156396e+01 
       4.412204569751e-05       6.416004358347e+01 
       5.554636454894e-05       8.010274639331e+01 
       6.992872986344e-05       1.000059713523e+02 
       8.803505503958e-05       1.248526497761e+02 
       1.108295679180e-04       1.558687347620e+02 
       1.395261594302e-04       1.945823938245e+02 
       1.756530277167e-04       2.428967689954e+02 
       2.211340602511e-04       3.031786233866e+02 
       2.783912878633e-04       3.783648701465e+02 
       3.504738667133e-04       4.720879427959e+02 
       4.412204569751e-04       5.888188289907e+02 
       5.554636454894e-04       7.340231659055e+02 
       6.992872986344e-04       9.143214727753e+02 
       8.803505503958e-04       1.137639420748e+03 
       1.108295679180e-03       1.413321587059e+03 
       1.395261594302e-03       1.752142460545e+03 
       1.756530277167e-03       2.166085950959e+03 
       2.211340602511e-03       2.667753016472e+03 
       2.783912878633e-03       3.269260053666e+03 
       3.504738667133e-03       3.980339870493e+03 
       4.412204569751e-03       4.805448928652e+03 
       5.554636454894e-03       5.722577409935e+03 
       6.992872986344e-03       6.736595134956e+03 
       8.803505503958e-03       7.791517144668e+03 
       1.108295679180e-02       8.810227868868e+03 
       1.395261594302e-02       9.675268047030e+03 
       1.756530277136e-02       1.022890977243e+04 
       2.211340495658e-02       1.029788528373e+04 
       2.783861797171e-02       9.767984509634e+03 
       3.499899075466e-02       8.718322425001e+03 
       4.299112203956e-02       7.600430188180e+03 
       4.915072424710e-02       6.941973670277e+03 
       5.375874817342e-02       6.563534774587e+03 
       5.765522489294e-02       6.298252041720e+03 
       6.118097949028e-02       6.083680491414e+03 
       6.449525209807e-02       5.890861461807e+03 
       6.768536383609e-02       5.704088387530e+03 
       7.080502198842e-02       5.514388211415e+03 
       7.389019104942e-02       5.317000263495e+03 
       7.696660972399e-02       5.110227694957e+03 
       8.005372699839e-02       4.894784370087e+03 
       8.316692809195e-02       4.673293954017e+03 
       8.631887197563e-02       4.449797557659e+03 
       8.952033524239e-02       4.229218521057e+03 
       9.278076619453e-02       4.016786217877e+03 
       9.610866083437e-02       3.817449021392e+03 
       9.951182503923e-02       3.635321366314e+03 
       1.029975614989e-01       3.473208925691e+03 
       1.065728054207e-01       3.332248836439e+03 
       1.102442244221e-01       3.211692940203e+03 
       1.140182928094e-01       3.108861425078e+03 
       1.179013471718e-01       3.019302809199e+03 
       1.218996281320e-01       2.937206490326e+03 
       1.260193117318e-01       2.856105664045e+03 
       1.302665330331e-01       2.769859427858e+03 
       1.346474039173e-01       2.673801521725e+03 
       1.391680266684e-01       2.565814545932e+03 
       1.438345046600e-01       2.446996067558e+03 
       1.486529512954e-01       2.321608284635e+03 
       1.536294982360e-01       2.196187091390e+03 
       1.587703038829e-01       2.077974053861e+03 
       1.640815630340e-01       1.973087383369e+03 
       1.695695186076e-01       1.884931721884e+03 
       1.752404763105e-01       1.813252292139e+03 
       1.811008231117e-01       1.754082174453e+03 
       1.871570503798e-01       1.700712116058e+03 
       1.934157825347e-01       1.645660399994e+03 
       1.998838120740e-01       1.583255568060e+03 
       2.065681418480e-01       1.511896538150e+03 
       2.134760354979e-01       1.434782830099e+03 
       2.206150770383e-01       1.358455567549e+03 
       2.279932406728e-01       1.289718340554e+03 
       2.356189720958e-01       1.232478364550e+03 
       2.435012827723e-01       1.186027639602e+03 
       2.516498590162e-01       1.145540595108e+03 
       2.600751881414e-01       1.104689903361e+03 
       2.687887045690e-01       1.059266734039e+03 
       2.778029595795e-01       1.009658478858e+03 
       2.871318194718e-01       9.602425213789e+02 
       2.967906983031e-01       9.159601966586e+02 
       3.067968332596e-01       8.786846688380e+02 
       3.171696132118e-01       8.461032609734e+02 
       3.279309743744e-01       8.139011255005e+02 
       3.391058815720e-01       7.795475307555e+02 
       3.507229199177e-01       7.443164237825e+02 
       3.628150305071e-01       7.114635036400e+02 
       3.754204361952e-01       6.825340243662e+02 
       3.885838214558e-01       6.558954431482e+02 
       4.023578565889e-01       6.290384988317e+02 
       4.168051957448e-01       6.017171777287e+02 
       4.320011379626e-01       5.757350237984e+02 
       4.480372335182e-01       5.518576376139e+02 
       4.650262666616e-01       5.287630526174e+02 
       4.831092903104e-01       5.055498975438e+02 
       5.024658027240e-01       4.830388481968e+02 
       5.233288837392e-01       4.615249653994e+02 
       5.460084367660e-01       4.401252833194e+02 
       5.709282200829e-01       4.188509486173e+02 
       5.986874497702e-01       3.978218283031e+02 
       6.301686123135e-01       3.764579510026e+02 
       6.667377840521e-01       3.546378270775e+02 
       7.106438048543e-01       3.317620368669e+02 
       7.658785917245e-01       3.071259714120e+02 
       8.401728985677e-01       2.794763625288e+02 
       9.496427409782e-01       2.468841172522e+02 
       1.125649079568e+00       2.075301923463e+02 
       1.397812730933e+00       1.647788949791e+02 
       1.758569210758e+00       1.262554709950e+02 
       2.213892384564e+00       9.359243825121e+01 
       2.787125346438e+00       6.674101064904e+01 
       3.508782924475e+00       4.574321969584e+01 
       4.417295988091e+00       3.025569324839e+01 
       5.561046170825e+00       1.943153377429e+01 
       7.000942340612e+00       1.219289402788e+01 
       8.813664219102e+00       7.515530271741e+00 
       1.109574585645e+01       4.570811784532e+00 
