# Matter power spectrum P(k) at redshift z=0
# for k=2.2963e-07 to 11.5242 h/Mpc,
# number of wavenumbers equal to 139
#    1:k (h/Mpc)              2:P (Mpc/h)^3        
       2.296296140743e-07       1.315526997909e+00 
       2.890865564586e-07       1.633389521314e+00 
       3.639384121338e-07       2.028055168657e+00 
       4.581713153633e-07       2.518081395819e+00 
       5.768035118660e-07       3.126509579273e+00 
       7.261525987002e-07       3.881948437452e+00 
       9.141719593440e-07       4.819919231283e+00 
       1.150874310368e-06       5.984525996149e+00 
       1.448864915103e-06       7.430529339212e+00 
       1.824012859880e-06       9.225921311136e+00 
       2.296296140743e-06       1.145512241887e+01 
       2.890865564586e-06       1.422295109584e+01 
       3.639384121338e-06       1.765955225710e+01 
       4.581713153633e-06       2.192651664413e+01 
       5.768035118660e-06       2.722447861984e+01 
       7.261525987002e-06       3.380254951451e+01 
       9.141719593440e-06       4.197002979423e+01 
       1.150874310368e-05       5.211095017990e+01 
       1.448864915103e-05       6.470212430520e+01 
       1.824012859880e-05       8.033555951068e+01 
       2.296296140743e-05       9.974627511699e+01 
       2.890865564586e-05       1.238468274920e+02 
       3.639384121338e-05       1.537701481781e+02 
       4.581713153633e-05       1.909226757244e+02 
       5.768035118660e-05       2.370502135137e+02 
       7.261525987002e-05       2.943194809868e+02 
       9.141719593440e-05       3.654189404159e+02 
       1.150874310368e-04       4.536831491086e+02 
       1.448864915103e-04       5.632455360421e+02 
       1.824012859880e-04       6.992249751378e+02 
       2.296296140743e-04       8.679515268803e+02 
       2.890865564586e-04       1.077235746248e+03 
       3.639384121338e-04       1.336683321768e+03 
       4.581713153633e-04       1.658051890843e+03 
       5.768035118660e-04       2.055639658257e+03 
       7.261525987002e-04       2.546686183541e+03 
       9.141719593440e-04       3.151748671083e+03 
       1.150874310368e-03       3.894966152263e+03 
       1.448864915103e-03       4.804016470909e+03 
       1.824012859880e-03       5.909504134406e+03 
       2.296296140743e-03       7.243499684545e+03 
       2.890865564586e-03       8.836694971861e+03 
       3.639384121338e-03       1.071364083339e+04 
       4.581713153633e-03       1.288557781180e+04 
       5.768035118660e-03       1.522835561809e+04 
       7.261525987002e-03       1.786167235505e+04 
       9.141719593440e-03       2.060037079002e+04 
       1.150874310368e-02       2.325998700433e+04 
       1.448864915103e-02       2.556945310257e+04 
       1.824012859744e-02       2.717949128652e+04 
       2.296295808704e-02       2.772360576630e+04 
       2.890746545626e-02       2.697332491330e+04 
       3.630477168053e-02       2.510464603498e+04 
       4.416964050359e-02       2.308664993016e+04 
       4.998547219420e-02       2.187512822015e+04 
       5.443847504569e-02       2.111639705364e+04 
       5.825800645232e-02       2.054850544997e+04 
       6.174095377016e-02       2.006632999233e+04 
       6.503021542214e-02       1.961786804824e+04 
       6.820585957905e-02       1.917365076220e+04 
       7.131790884535e-02       1.871646685284e+04 
       7.440026405790e-02       1.823733352524e+04 
       7.747742204134e-02       1.773365533636e+04 
       8.056804287574e-02       1.720813281514e+04 
       8.368698947287e-02       1.666782008741e+04 
       8.684656386075e-02       1.612307223573e+04 
       9.005729274543e-02       1.558629577822e+04 
       9.332844633788e-02       1.507051990615e+04 
       9.666839212468e-02       1.458787407373e+04 
       1.000848425343e-01       1.414808569159e+04 
       1.035850321023e-01       1.375712446532e+04 
       1.071758464114e-01       1.341611652981e+04 
       1.108639171865e-01       1.312066196433e+04 
       1.146556930984e-01       1.286072324300e+04 
       1.185574927978e-01       1.262128510275e+04 
       1.225755447546e-01       1.238398634075e+04 
       1.267160172077e-01       1.212980743572e+04 
       1.309850406911e-01       1.184260774963e+04 
       1.353887250404e-01       1.151287558151e+04 
       1.399331724159e-01       1.114064824048e+04 
       1.446244876283e-01       1.073645427543e+04 
       1.494687868930e-01       1.031953834652e+04 
       1.544722060360e-01       9.913485309474e+03 
       1.596409091072e-01       9.540289064655e+03 
       1.649810983161e-01       9.214454833177e+03 
       1.704990261812e-01       8.938717287206e+03 
       1.762010107645e-01       8.702635889012e+03 
       1.820934548550e-01       8.484920880106e+03 
       1.881828699541e-01       8.259713615658e+03 
       1.944759059181e-01       8.005667040187e+03 
       2.009793871168e-01       7.714641609595e+03 
       2.077003559886e-01       7.395604593466e+03 
       2.146461249147e-01       7.070818713965e+03 
       2.218243374085e-01       6.765527275952e+03 
       2.292430397314e-01       6.496199854931e+03 
       2.369107642228e-01       6.263171601222e+03 
       2.448366258815e-01       6.051300126048e+03 
       2.530304340864e-01       5.838750029448e+03 
       2.615028218181e-01       5.609863692427e+03 
       2.702653953815e-01       5.364451985370e+03 
       2.793309084776e-01       5.116655131129e+03 
       2.887134655894e-01       4.883815133879e+03 
       2.984287611308e-01       4.673879411835e+03 
       3.084943627716e-01       4.480891857630e+03 
       3.189300499796e-01       4.291630267892e+03 
       3.297582223586e-01       4.097634206284e+03 
       3.410043971854e-01       3.901854022509e+03 
       3.526978222033e-01       3.713760332848e+03 
       3.648722390363e-01       3.538681934333e+03 
       3.775668458023e-01       3.373157835080e+03 
       3.908275265785e-01       3.210691042622e+03 
       4.047084433858e-01       3.049956017068e+03 
       4.192741283136e-01       2.894912092705e+03 
       4.346022775526e-01       2.747877662581e+03 
       4.507875494853e-01       2.606574890006e+03 
       4.679468301061e-01       2.468795008066e+03 
       4.862266951073e-01       2.335545289076e+03 
       5.058142514612e-01       2.207632565759e+03 
       5.269533423329e-01       2.083741171801e+03 
       5.499695721385e-01       1.963267847925e+03 
       5.753104439663e-01       1.846249417132e+03 
       6.036126509074e-01       1.731685621587e+03 
       6.358209288137e-01       1.618691905907e+03 
       6.734112848707e-01       1.505913085531e+03 
       7.188413875769e-01       1.391212364293e+03 
       7.765340929722e-01       1.271091168764e+03 
       8.551791955759e-01       1.139389775395e+03 
       9.729843145416e-01       9.851884435468e+02 
       1.163651880160e+00       7.957972033110e+02 
       1.451325951624e+00       5.885361726796e+02 
       1.826473764109e+00       4.090146713931e+02 
       2.299387911357e+00       2.724433810579e+02 
       2.894757862286e+00       1.760009497898e+02 
       3.644284233821e+00       1.112859457994e+02 
       4.587882029758e+00       6.934084760375e+01 
       5.775801273576e+00       4.277821087442e+01 
       7.271302996778e+00       2.621472266671e+01 
       9.154028119499e+00       1.599188020087e+01 
       1.152423861992e+01       9.725549660304e+00 
