# Matter power spectrum P(k) at redshift z=0
# for k=1.78602e-07 to 11.2828 h/Mpc,
# number of wavenumbers equal to 140
#    1:k (h/Mpc)              2:P (Mpc/h)^3        
       1.786018667669e-07       1.946993240659e+00 
       2.248464286667e-07       2.435535382263e+00 
       2.830648827997e-07       3.046663167212e+00 
       3.563575741431e-07       3.811135945777e+00 
       4.486276057741e-07       4.767431241760e+00 
       5.647886933414e-07       5.963681404595e+00 
       7.110268383415e-07       7.460096203949e+00 
       8.951297552557e-07       9.331993299712e+00 
       1.126901595745e-06       1.167358910890e+01 
       1.418685055474e-06       1.460274085794e+01 
       1.786018667669e-06       1.826687846591e+01 
       2.248464286667e-06       2.285042476890e+01 
       2.830648827997e-06       2.858407744511e+01 
       3.563575741431e-06       3.575641958949e+01 
       4.486276057741e-06       4.472844287208e+01 
       5.647886933414e-06       5.595171337494e+01 
       7.110268383415e-06       6.999109264337e+01 
       8.951297552557e-06       8.755315404931e+01 
       1.126901595745e-05       1.095217177455e+02 
       1.418685055474e-05       1.370022789616e+02 
       1.786018667669e-05       1.713775384341e+02 
       2.248464286667e-05       2.143767757478e+02 
       2.830648827997e-05       2.681624500037e+02 
       3.563575741431e-05       3.354381743714e+02 
       4.486276057741e-05       4.195830799111e+02 
       5.647886933414e-05       5.248185051110e+02 
       7.110268383415e-05       6.564137778158e+02 
       8.951297552557e-05       8.209382754110e+02 
       1.126901595745e-04       1.026566306635e+03 
       1.418685055474e-04       1.283438421956e+03 
       1.786018667669e-04       1.604075395839e+03 
       2.248464286667e-04       2.003826119140e+03 
       2.830648827997e-04       2.501304438314e+03 
       3.563575741431e-04       3.118732022958e+03 
       4.486276057741e-04       3.882064208259e+03 
       5.647886933414e-04       4.820754495405e+03 
       7.110268383415e-04       5.966996028704e+03 
       8.951297552557e-04       7.354091966470e+03 
       1.126901595745e-03       9.013110233052e+03 
       1.418685055474e-03       1.096707033586e+04 
       1.786018667669e-03       1.322289882191e+04 
       2.248464286667e-03       1.576090544918e+04 
       2.830648827997e-03       1.852314982890e+04 
       3.563575741431e-03       2.140320348480e+04 
       4.486276057741e-03       2.423897218586e+04 
       5.647886933414e-03       2.681371199094e+04 
       7.110268383415e-03       2.886728551805e+04 
       8.951297552557e-03       3.011718655045e+04 
       1.126901595745e-02       3.028889286968e+04 
       1.418685055474e-02       2.915824818051e+04 
       1.786018667616e-02       2.661973391978e+04 
       2.248464124675e-02       2.280163053727e+04 
       2.830579069245e-02       1.821084639029e+04 
       3.557507527998e-02       1.377740688667e+04 
       4.355815398663e-02       1.068073369910e+04 
       4.960905381128e-02       9.211131929830e+03 
       5.417332475427e-02       8.384929480452e+03 
       5.805332532519e-02       7.778846116457e+03 
       6.157421771562e-02       7.262635086735e+03 
       6.488957413572e-02       6.786893051422e+03 
       6.808427410636e-02       6.331975324069e+03 
       7.121082175127e-02       5.891847206537e+03 
       7.430452936956e-02       5.467398700723e+03 
       7.739075744067e-02       5.062960615468e+03 
       8.048872506395e-02       4.684136929668e+03 
       8.361367344930e-02       4.336318269661e+03 
       8.677817003495e-02       4.023652342860e+03 
       8.999293340854e-02       3.748382207967e+03 
       9.326737610202e-02       3.510499470380e+03 
       9.660997356618e-02       3.307666755499e+03 
       1.000285218256e-01       3.135370754214e+03 
       1.035303214095e-01       2.987287078356e+03 
       1.071223109979e-01       2.855860891908e+03 
       1.108111658686e-01       2.733110508334e+03 
       1.146033711350e-01       2.611624418781e+03 
       1.185052765773e-01       2.485638662326e+03 
       1.225231378247e-01       2.351981887460e+03 
       1.266631473140e-01       2.210614481132e+03 
       1.309314575714e-01       2.064529828983e+03 
       1.353341987766e-01       1.918946692918e+03 
       1.398774921830e-01       1.779953831639e+03 
       1.445674607042e-01       1.652963176663e+03 
       1.494102378121e-01       1.541390421422e+03 
       1.544119757795e-01       1.445893020384e+03 
       1.595788542332e-01       1.364328291681e+03 
       1.649170899384e-01       1.292434692011e+03 
       1.704329487099e-01       1.225102081473e+03 
       1.761327603269e-01       1.157928991191e+03 
       1.820229373176e-01       1.088574213640e+03 
       1.881099984712e-01       1.017346845652e+03 
       1.944005979338e-01       9.467220657918e+02 
       2.009015607482e-01       8.799803299856e+02 
       2.076199257200e-01       8.196294955458e+02 
       2.145629965266e-01       7.663590714535e+02 
       2.217384020613e-01       7.189622341090e+02 
       2.291541671109e-01       6.751738209800e+02 
       2.368187946371e-01       6.329370844851e+02 
       2.447413611742e-01       5.913898989707e+02 
       2.529316271912e-01       5.510153232979e+02 
       2.614001647344e-01       5.129456640855e+02 
       2.701585052804e-01       4.779894422811e+02 
       2.792193115588e-01       4.460884406511e+02 
       2.885965781927e-01       4.165098371608e+02 
       2.983058674474e-01       3.884928169763e+02 
       3.083645882922e-01       3.617586076039e+02 
       3.187923295333e-01       3.364924138509e+02 
       3.296112612161e-01       3.129318781318e+02 
       3.408466231746e-01       2.910359091588e+02 
       3.525273260543e-01       2.705317595981e+02 
       3.646866991396e-01       2.511876111178e+02 
       3.773634320841e-01       2.329528414797e+02 
       3.906027760312e-01       2.158470151154e+02 
       4.044580965778e-01       1.998108620669e+02 
       4.189929113252e-01       1.847205336021e+02 
       4.342836062246e-01       1.704879498261e+02 
       4.504231208704e-01       1.570728068722e+02 
       4.675260464552e-01       1.444224886140e+02 
       4.857358328920e-01       1.324638726500e+02 
       5.052352309636e-01       1.211358006521e+02 
       5.262618507361e-01       1.103843439193e+02 
       5.491321003261e-01       1.001457155095e+02 
       5.742794174903e-01       9.035657890938e+01 
       6.023180455764e-01       8.094687189105e+01 
       6.341550139855e-01       7.183909937315e+01 
       6.711990026576e-01       6.294065909213e+01 
       7.157783939467e-01       5.414088898799e+01 
       7.720465403617e-01       4.530060969029e+01 
       8.480888652190e-01       3.625828916723e+01 
       9.607984642046e-01       2.691094473353e+01 
       1.142527045340e+00       1.771132034383e+01 
       1.421186365072e+00       1.038753871379e+01 
       1.788218112202e+00       5.880699587501e+00 
       2.251222090041e+00       3.302349143726e+00 
       2.834120673308e+00       1.842974412716e+00 
       3.567946535712e+00       1.022724201949e+00 
       4.491778561731e+00       5.646084578537e-01 
       5.654814175516e+00       3.102192971921e-01 
       7.118989264531e+00       1.697009419042e-01 
       8.962276491407e+00       9.245614052351e-02 
       1.128283762256e+01       5.018171719077e-02 
