# Matter power spectrum P(k) at redshift z=0
# for k=2.29539e-07 to 11.5169 h/Mpc,
# number of wavenumbers equal to 139
#    1:k (h/Mpc)              2:P (Mpc/h)^3        
       2.295386263736e-07       8.885127270362e-01 
       2.889720097300e-07       1.106862446002e+00 
       3.637942063464e-07       1.378871046814e+00 
       4.579897710330e-07       1.717725061383e+00 
       5.765749610952e-07       2.139851577420e+00 
       7.258648703270e-07       2.665714596387e+00 
       9.138097307833e-07       3.320807093709e+00 
       1.150418291628e-06       4.136886874533e+00 
       1.448290821523e-06       5.153516136139e+00 
       1.823290118884e-06       6.419979370376e+00 
       2.295386263736e-06       7.997672579760e+00 
       2.889720097300e-06       9.963079623235e+00 
       3.637942063464e-06       1.241147996683e+01 
       4.579897710330e-06       1.546156755392e+01 
       5.765749610952e-06       1.926120465074e+01 
       7.258648703270e-06       2.399458948879e+01 
       9.138097307833e-06       2.989118495006e+01 
       1.150418291628e-05       3.723684068669e+01 
       1.448290821523e-05       4.638764696187e+01 
       1.823290118884e-05       5.778719005510e+01 
       2.295386263736e-05       7.198804225235e+01 
       2.889720097300e-05       8.967852132453e+01 
       3.637942063464e-05       1.117160031749e+02 
       4.579897710330e-05       1.391683758023e+02 
       5.765749610952e-05       1.733655914985e+02 
       7.258648703270e-05       2.159637128631e+02 
       9.138097307833e-05       2.690243544462e+02 
       1.150418291628e-04       3.351129751820e+02 
       1.448290821523e-04       4.174200190842e+02 
       1.823290118884e-04       5.199093057460e+02 
       2.295386263736e-04       6.474980924052e+02 
       2.889720097300e-04       8.062724526231e+02 
       3.637942063464e-04       1.003739468511e+03 
       4.579897710330e-04       1.249113682204e+03 
       5.765749610952e-04       1.553629280700e+03 
       7.258648703270e-04       1.930861879840e+03 
       9.138097307833e-04       2.397030089801e+03 
       1.150418291628e-03       2.971206085135e+03 
       1.448290821523e-03       3.675276627861e+03 
       1.823290118884e-03       4.533438193481e+03 
       2.295386263736e-03       5.570976239067e+03 
       2.889720097300e-03       6.811923280405e+03 
       3.637942063464e-03       8.275151833182e+03 
       4.579897710330e-03       9.968433022815e+03 
       5.765749610952e-03       1.181605172173e+04 
       7.258648703270e-03       1.387101757016e+04 
       9.138097307833e-03       1.599722863642e+04 
       1.150418291628e-02       1.803666288289e+04 
       1.448290821523e-02       1.975255222512e+04 
       1.823290118862e-02       2.083151333206e+04 
       2.295386181321e-02       2.093350659941e+04 
       2.889677530148e-02       1.983694867718e+04 
       3.633646376574e-02       1.769886626673e+04 
       4.473233385621e-02       1.540856157647e+04 
       5.129040743909e-02       1.406180472127e+04 
       5.616755052521e-02       1.331190922792e+04 
       6.027506403072e-02       1.280202651036e+04 
       6.398377916806e-02       1.239939007733e+04 
       6.746557720770e-02       1.204245046915e+04 
       7.081415905345e-02       1.169737181470e+04 
       7.408691206613e-02       1.134428134209e+04 
       7.732214114661e-02       1.097210724494e+04 
       8.054718913004e-02       1.057634330382e+04 
       8.378267272118e-02       1.015784621842e+04 
       8.704487097638e-02       9.721909133344e+03 
       9.034715711549e-02       9.277284934663e+03 
       9.370090016286e-02       8.835042471212e+03 
       9.711605603923e-02       8.407267738073e+03 
       1.006015681431e-01       8.005695804965e+03 
       1.041656463740e-01       7.640396342116e+03 
       1.078159659102e-01       7.318625215466e+03 
       1.115598114088e-01       7.043924820141e+03 
       1.154041830977e-01       6.815521125021e+03 
       1.193558756342e-01       6.628059666488e+03 
       1.234215371148e-01       6.471760081596e+03 
       1.276077133877e-01       6.333133144146e+03 
       1.319208813624e-01       6.196440550215e+03 
       1.363674740584e-01       6.045997829296e+03 
       1.409538994900e-01       5.869152428869e+03 
       1.456865550673e-01       5.659346276487e+03 
       1.505718389044e-01       5.418289478867e+03 
       1.556161592481e-01       5.156236892074e+03 
       1.608259431147e-01       4.889872965378e+03 
       1.662076451498e-01       4.638214617515e+03 
       1.717677576794e-01       4.417733773893e+03 
       1.775128228875e-01       4.238102354689e+03 
       1.834494480411e-01       4.099574513806e+03 
       1.895843246659e-01       3.992534840622e+03 
       1.959242525720e-01       3.899578252759e+03 
       2.024761696226e-01       3.800384634844e+03 
       2.092471881452e-01       3.678778807451e+03 
       2.162446389029e-01       3.529504779596e+03 
       2.234761235798e-01       3.360910652432e+03 
       2.309495768064e-01       3.191152240091e+03 
       2.386733388603e-01       3.039477558882e+03 
       2.466562403480e-01       2.917256929063e+03 
       2.549077004164e-01       2.823085154726e+03 
       2.634378403875e-01       2.743897930860e+03 
       2.722576151771e-01       2.661949351411e+03 
       2.813789654861e-01       2.565045880655e+03 
       2.908149945932e-01       2.454020927492e+03 
       3.005801746829e-01       2.341308833573e+03 
       3.106905891102e-01       2.241115296600e+03 
       3.211642189427e-01       2.159009060733e+03 
       3.320212847152e-01       2.088730708525e+03 
       3.432846578128e-01       2.018238123599e+03 
       3.549803606386e-01       1.940371031434e+03 
       3.671381812383e-01       1.858687971518e+03 
       3.797924371434e-01       1.782354502356e+03 
       3.929829360582e-01       1.715787458760e+03 
       4.067561995197e-01       1.654642557931e+03 
       4.211670427305e-01       1.592150953867e+03 
       4.362806441435e-01       1.527662518872e+03 
       4.521752998362e-01       1.466030451691e+03 
       4.689461534072e-01       1.409356342928e+03 
       4.867103448918e-01       1.354297004834e+03 
       5.056142729030e-01       1.298572365561e+03 
       5.258440886029e-01       1.244237105487e+03 
       5.476412839323e-01       1.192068628293e+03 
       5.713265923938e-01       1.139988516410e+03 
       5.973380047430e-01       1.087973189925e+03 
       6.262938825097e-01       1.036280432943e+03 
       6.591031529096e-01       9.835743930480e+02 
       6.971694840615e-01       9.294204643983e+02 
       7.427968305565e-01       8.723268363149e+02 
       8.000604576192e-01       8.103330517661e+02 
       8.768223445374e-01       7.399221158626e+02 
       9.894410712587e-01       6.551965824860e+02 
       1.170083561028e+00       5.488231456013e+02 
       1.451043176514e+00       4.261815090634e+02 
       1.825321555469e+00       3.118144119871e+02 
       2.297923968947e+00       2.176331764067e+02 
       2.892914828629e+00       1.459881003542e+02 
       3.641963991901e+00       9.492983786443e+01 
       4.584961018243e+00       6.030726563699e+01 
       5.772123937952e+00       3.766743563128e+01 
       7.266673505513e+00       2.324244089200e+01 
       9.148199935302e+00       1.421817264962e+01 
       1.151690137073e+01       8.644557346198e+00 
