# Matter power spectrum P(k) at redshift z=0.5
# for k=2.27323e-07 to 11.4074 h/Mpc,
# number of wavenumbers equal to 139
#    1:k (h/Mpc)              2:P (Mpc/h)^3        
       2.273231231930e-07       4.496683341903e-01 
       2.861828564761e-07       5.633551972901e-01 
       3.602828704376e-07       7.057848065368e-01 
       4.535692610280e-07       8.842240125190e-01 
       5.710098687169e-07       1.107776898380e+00 
       7.188588341129e-07       1.387849276079e+00 
       9.049896537575e-07       1.738730617671e+00 
       1.139314472526e-06       2.178323112693e+00 
       1.434311941488e-06       2.729055047722e+00 
       1.805691751579e-06       3.419025108819e+00 
       2.273231231930e-06       4.283435987996e+00 
       2.861828564761e-06       5.366390434878e+00 
       3.602828704376e-06       6.723141380956e+00 
       4.535692610280e-06       8.422910929786e+00 
       5.710098687169e-06       1.055242201146e+01 
       7.188588341129e-06       1.322032284143e+01 
       9.049896537575e-06       1.656272982426e+01 
       1.139314472526e-05       2.075017150620e+01 
       1.434311941488e-05       2.599628747908e+01 
       1.805691751579e-05       3.256872528208e+01 
       2.273231231930e-05       4.080278975069e+01 
       2.861828564761e-05       5.111853816495e+01 
       3.602828704376e-05       6.404218739830e+01 
       4.535692610280e-05       8.023291333909e+01 
       5.710098687169e-05       1.005163862691e+02 
       7.188588341129e-05       1.259267064282e+02 
       9.049896537575e-05       1.577587870227e+02 
       1.139314472526e-04       1.976336754595e+02 
       1.434311941488e-04       2.475797896517e+02 
       1.805691751579e-04       3.101335226338e+02 
       2.273231231930e-04       3.884630223067e+02 
       2.861828564761e-04       4.865189688554e+02 
       3.602828704376e-04       6.092155016161e+02 
       4.535692610280e-04       7.626426440681e+02 
       5.710098687169e-04       9.543083220542e+02 
       7.188588341129e-04       1.193403518222e+03 
       9.049896537575e-04       1.491077972694e+03 
       1.139314472526e-03       1.860699260199e+03 
       1.434311941488e-03       2.318023755358e+03 
       1.805691751579e-03       2.881114245179e+03 
       2.273231231930e-03       3.569897827002e+03 
       2.861828564761e-03       4.405055274620e+03 
       3.602828704376e-03       5.405857260045e+03 
       4.535692610280e-03       6.559610285553e+03 
       5.710098687169e-03       7.909955322391e+03 
       7.188588341129e-03       9.421675428110e+03 
       9.049896537575e-03       1.104544808782e+04 
       1.139314472526e-02       1.268478505324e+04 
       1.434311941488e-02       1.418000354327e+04 
       1.805691751514e-02       1.530131807802e+04 
       2.273231043448e-02       1.577547564706e+04 
       2.861750336888e-02       1.538634841193e+04 
       3.596226071549e-02       1.417825089368e+04 
       4.397911761912e-02       1.276839470470e+04 
       5.002256689554e-02       1.191148366181e+04 
       5.459477838738e-02       1.140197546071e+04 
       5.848867968090e-02       1.104142925982e+04 
       6.202570047892e-02       1.075050268966e+04 
       6.535822992287e-02       1.048992783401e+04 
       6.857072699824e-02       1.023687949837e+04 
       7.171554056698e-02       9.977153600391e+03 
       7.482793259578e-02       9.702185736742e+03 
       7.793325870014e-02       9.407795015179e+03 
       8.105075409123e-02       9.093559545957e+03 
       8.419568617537e-02       8.762357701371e+03 
       8.738065355986e-02       8.419854404308e+03 
       9.061640848849e-02       8.073833876974e+03 
       9.391239840649e-02       7.733360647997e+03 
       9.727713432695e-02       7.407809102363e+03 
       1.007184481925e-01       7.105840819498e+03 
       1.042436766730e-01       6.834415966905e+03 
       1.078597947590e-01       6.597925910540e+03 
       1.115735141934e-01       6.397511657412e+03 
       1.153913567108e-01       6.230628723716e+03 
       1.193197088754e-01       6.090936196471e+03 
       1.233648632688e-01       5.968629889212e+03 
       1.275330494542e-01       5.851372677750e+03 
       1.318304572619e-01       5.725946353675e+03 
       1.362632543595e-01       5.580584822040e+03 
       1.408375996815e-01       5.407639414792e+03 
       1.455596540348e-01       5.205868080638e+03 
       1.504355890269e-01       4.981460172589e+03 
       1.554715953564e-01       4.747129279760e+03 
       1.606738914353e-01       4.519244489293e+03 
       1.660487332695e-01       4.313728323288e+03 
       1.716024264978e-01       4.141882533438e+03 
       1.773413414718e-01       4.007223622637e+03 
       1.832719322469e-01       3.904063686173e+03 
       1.894007603490e-01       3.818368598710e+03 
       1.957345241760e-01       3.731349495909e+03 
       2.022800949036e-01       3.625662068077e+03 
       2.090445597789e-01       3.492482625425e+03 
       2.160352737301e-01       3.335964903535e+03 
       2.232599202885e-01       3.171832763963e+03 
       2.307265829335e-01       3.020072281985e+03 
       2.384438281419e-01       2.895459139999e+03 
       2.464208016690e-01       2.800688837054e+03 
       2.546673399311e-01       2.725157743686e+03 
       2.631940988288e-01       2.650327145199e+03 
       2.720127029761e-01       2.560216763125e+03 
       2.811359191369e-01       2.451551568814e+03 
       2.905778587734e-01       2.335724091002e+03 
       3.003542160711e-01       2.229910131835e+03 
       3.104825497417e-01       2.144132248601e+03 
       3.209826194918e-01       2.074298394407e+03 
       3.318767915268e-01       2.006321544747e+03 
       3.431905322006e-01       1.928659640673e+03 
       3.549530154530e-01       1.842735573162e+03 
       3.671978788047e-01       1.760197750219e+03 
       3.799641756189e-01       1.689540282177e+03 
       3.932975899907e-01       1.627199931241e+03 
       4.072520079785e-01       1.563131114945e+03 
       4.218915797836e-01       1.494065556042e+03 
       4.372934698944e-01       1.426693500297e+03 
       4.535515896791e-01       1.366128590015e+03 
       4.707817629964e-01       1.308174708156e+03 
       4.891290325048e-01       1.247939403464e+03 
       5.087782513409e-01       1.188397051034e+03 
       5.299698742555e-01       1.132229308345e+03 
       5.530242721031e-01       1.075929426581e+03 
       5.783805963151e-01       1.019096435688e+03 
       6.066616748985e-01       9.632429848082e+02 
       6.387880927952e-01       9.061348861216e+02 
       6.761912660526e-01       8.478909632171e+02 
       7.212405966387e-01       7.868782346885e+02 
       7.781700063960e-01       7.215044911523e+02 
       8.552370044492e-01       6.486912287141e+02 
       9.697061416642e-01       5.638571920899e+02 
       1.154436092473e+00       4.630601831825e+02 
       1.436817065308e+00       3.551657810542e+02 
       1.807961399374e+00       2.583277999505e+02 
       2.276078520098e+00       1.789331838721e+02 
       2.865413067898e+00       1.187557639211e+02 
       3.607341326459e+00       7.625364750955e+01 
       4.541373664895e+00       4.779221607172e+01 
       5.717250711189e+00       2.944385383277e+01 
       7.197592205914e+00       1.792387964668e+01 
       9.061231731756e+00       1.082117121531e+01 
       1.140741488926e+01       6.495835594439e+00 
