# Matter power spectrum P(k) at redshift z=1.5
# for k=2.23531e-07 to 11.2165 h/Mpc,
# number of wavenumbers equal to 139
#    1:k (h/Mpc)              2:P (Mpc/h)^3        
       2.235314877440e-07       2.110348132939e-01 
       2.814094702570e-07       2.629687270930e-01 
       3.542735332261e-07       3.276831453390e-01 
       4.460039537045e-07       4.083232438597e-01 
       5.614857110792e-07       5.088081997612e-01 
       7.068686300370e-07       6.340216671676e-01 
       8.898948811536e-07       7.900491258529e-01 
       1.120311279710e-06       9.844736405028e-01 
       1.410388339146e-06       1.226744402373e+00 
       1.775573720650e-06       1.528635965659e+00 
       2.235314877440e-06       1.904820494690e+00 
       2.814094702570e-06       2.373580832206e+00 
       3.542735332261e-06       2.957699039594e+00 
       4.460039537045e-06       3.685563579600e+00 
       5.614857110792e-06       4.592548933345e+00 
       7.068686300370e-06       5.722734658454e+00 
       8.898948811537e-06       7.131047352398e+00 
       1.120311279710e-05       8.885929466351e+00 
       1.410388339146e-05       1.107266433640e+01 
       1.775573720650e-05       1.379751842014e+01 
       2.235314877440e-05       1.719290076901e+01 
       2.814094702570e-05       2.142378803872e+01 
       3.542735332261e-05       2.669572237444e+01 
       4.460039537045e-05       3.326476123184e+01 
       5.614857110792e-05       4.144984365133e+01 
       7.068686300370e-05       5.164813648420e+01 
       8.898948811537e-05       6.435403269482e+01 
       1.120311279710e-04       8.018258045863e+01 
       1.410388339146e-04       9.989819951985e+01 
       1.775573720650e-04       1.244495329608e+02 
       2.235314877440e-04       1.550110780436e+02 
       2.814094702570e-04       1.930316386352e+02 
       3.542735332261e-04       2.402883202575e+02 
       4.460039537045e-04       2.989423159433e+02 
       5.614857110792e-04       3.715887937672e+02 
       7.068686300370e-04       4.612882744484e+02 
       8.898948811537e-04       5.715631868776e+02 
       1.120311279710e-03       7.063430395682e+02 
       1.410388339146e-03       8.698350311544e+02 
       1.775573720650e-03       1.066249660196e+03 
       2.235314877440e-03       1.299245674708e+03 
       2.814094702570e-03       1.571062781477e+03 
       3.542735332261e-03       1.881393663553e+03 
       4.460039537045e-03       2.225944418856e+03 
       5.614857110792e-03       2.594775416894e+03 
       7.068686300370e-03       2.968289044474e+03 
       8.898948811537e-03       3.324483875308e+03 
       1.120311279710e-02       3.626751982100e+03 
       1.410388339146e-02       3.831950938368e+03 
       1.775573720649e-02       3.892714869262e+03 
       2.235314872940e-02       3.767812668324e+03 
       2.814089847280e-02       3.443339516764e+03 
       3.541842378754e-02       2.963208430929e+03 
       4.421866234567e-02       2.457329927453e+03 
       5.222619853878e-02       2.122294489902e+03 
       5.796130059582e-02       1.943565179815e+03 
       6.259293437167e-02       1.823192165058e+03 
       6.668296031489e-02       1.726982649090e+03 
       7.047348510878e-02       1.641854658193e+03 
       7.408912647694e-02       1.561874454655e+03 
       7.760313327543e-02       1.484248735479e+03 
       8.106290866169e-02       1.407854106460e+03 
       8.450147032507e-02       1.332563374753e+03 
       8.794321476735e-02       1.258863353557e+03 
       9.140707730525e-02       1.187591023956e+03 
       9.490838455300e-02       1.119725188803e+03 
       9.846000008489e-02       1.056212708509e+03 
       1.020730644523e-01       9.978250081282e+02 
       1.057574905868e-01       9.450472001690e+02 
       1.095223053982e-01       8.980031913745e+02 
       1.133758911280e-01       8.564200264866e+02 
       1.173261592843e-01       8.196341837485e+02 
       1.213806779652e-01       7.866432230613e+02 
       1.255467661623e-01       7.562059064392e+02 
       1.298315641718e-01       7.269901805253e+02 
       1.342420864134e-01       6.977595360530e+02 
       1.387852611273e-01       6.675731985377e+02 
       1.434679602195e-01       6.359595189333e+02 
       1.482970217267e-01       6.030135680556e+02 
       1.532792668449e-01       5.693776337017e+02 
       1.584215131093e-01       5.360914343335e+02 
       1.637305850833e-01       5.043381194211e+02 
       1.692133237613e-01       4.751483016181e+02 
       1.748765957939e-01       4.491397610166e+02 
       1.807273035828e-01       4.263618443401e+02 
       1.867723972548e-01       4.062878491086e+02 
       1.930188895018e-01       3.879672045708e+02 
       1.994738742557e-01       3.703118303456e+02 
       2.061445501577e-01       3.524436182922e+02 
       2.130382497769e-01       3.339836870978e+02 
       2.201624755304e-01       3.151559687588e+02 
       2.275249432760e-01       2.966415523501e+02 
       2.351336345736e-01       2.792398864984e+02 
       2.429968586756e-01       2.634961590468e+02 
       2.511233254031e-01       2.494718251231e+02 
       2.595222302212e-01       2.367617595712e+02 
       2.682033530506e-01       2.247414936308e+02 
       2.771771726768e-01       2.129116762863e+02 
       2.864549990577e-01       2.011433332830e+02 
       2.960491264324e-01       1.896753842672e+02 
       3.059730109287e-01       1.788783687765e+02 
       3.162414774299e-01       1.689647275949e+02 
       3.268709618552e-01       1.598554828345e+02 
       3.378797968671e-01       1.512819325309e+02 
       3.492885514784e-01       1.430153697522e+02 
       3.611204383379e-01       1.350218330439e+02 
       3.734018069433e-01       1.274184211575e+02 
       3.861627471529e-01       1.203024933406e+02 
       3.994378358552e-01       1.136409104418e+02 
       4.132670716048e-01       1.073198667484e+02 
       4.276970590993e-01       1.012688200580e+02 
       4.427825301831e-01       9.550157376227e+01 
       4.585883247734e-01       9.004422916487e+01 
       4.751920105370e-01       8.487067158446e+01 
       4.926874056599e-01       7.993130120604e+01 
       5.111894042068e-01       7.520639992964e+01 
       5.308407229014e-01       7.069374698140e+01 
       5.518215548211e-01       6.637202679272e+01 
       5.743637491278e-01       6.221231204392e+01 
       5.987722726888e-01       5.819681961771e+01 
       6.254588369748e-01       5.430316801049e+01 
       6.549967519741e-01       5.050186128603e+01 
       6.882147365694e-01       4.676180925297e+01 
       7.263665418770e-01       4.304243881431e+01 
       7.714584237997e-01       3.929032303067e+01 
       8.269308252118e-01       3.543069141805e+01 
       8.991939502983e-01       3.135370913133e+01 
       1.001263251305e+00       2.690424185919e+01 
       1.160191596614e+00       2.195723768721e+01 
       1.416449130692e+00       1.684248878020e+01 
       1.777808515366e+00       1.256927877793e+01 
       2.237992869468e+00       9.373743973955e+00 
       2.817465401942e+00       6.958904365172e+00 
       3.546978790821e+00       5.106191638612e+00 
       4.465381734859e+00       3.680403023499e+00 
       5.621582539376e+00       2.593275133994e+00 
       7.077153113318e+00       1.780432400888e+00 
       8.909607897515e+00       1.188840165928e+00 
       1.121653179130e+01       7.717837548673e-01 
