# Matter power spectrum P(k) at redshift z=0.5
# for k=2.28199e-07 to 11.4488 h/Mpc,
# number of wavenumbers equal to 139
#    1:k (h/Mpc)              2:P (Mpc/h)^3        
       2.281994966026e-07       5.067372559271e-01 
       2.872861452317e-07       6.293508673150e-01 
       3.616718286885e-07       7.816329061783e-01 
       4.553178558661e-07       9.707621478882e-01 
       5.732112191934e-07       1.205654392775e+00 
       7.216301701681e-07       1.497382768699e+00 
       9.084785591420e-07       1.859699731795e+00 
       1.143706744174e-06       2.309685373809e+00 
       1.439841483881e-06       2.868552596997e+00 
       1.812653033013e-06       3.562647112193e+00 
       2.281994966026e-06       4.424689397956e+00 
       2.872861452317e-06       5.495317162876e+00 
       3.616718286885e-06       6.825001014028e+00 
       4.553178558661e-06       8.476423614585e+00 
       5.732112191934e-06       1.052743444477e+01 
       7.216301701681e-06       1.307471936973e+01 
       9.084785591420e-06       1.623835783081e+01 
       1.143706744174e-05       2.016748215690e+01 
       1.439841483881e-05       2.504730511993e+01 
       1.812653033013e-05       3.110784571660e+01 
       2.281994966026e-05       3.863476195683e+01 
       2.872861452317e-05       4.798279628159e+01 
       3.616718286885e-05       5.959245751480e+01 
       4.553178558661e-05       7.401070625200e+01 
       5.732112191934e-05       9.191658051310e+01 
       7.216301701681e-05       1.141528945855e+02 
       9.084785591420e-05       1.417653585297e+02 
       1.143706744174e-04       1.760506762862e+02 
       1.439841483881e-04       2.186153355564e+02 
       1.812653033013e-04       2.714467974298e+02 
       2.281994966026e-04       3.369984319321e+02 
       2.872861452317e-04       4.182884948325e+02 
       3.616718286885e-04       5.190112237085e+02 
       4.553178558661e-04       6.436542725454e+02 
       5.732112191934e-04       7.976112432711e+02 
       7.216301701681e-04       9.872722766287e+02 
       9.084785591420e-04       1.220070504428e+03 
       1.143706744174e-03       1.504448065470e+03 
       1.439841483881e-03       1.849651667556e+03 
       1.812653033013e-03       2.265190566357e+03 
       2.281994966026e-03       2.759840325876e+03 
       2.872861452317e-03       3.340094434865e+03 
       3.616718286885e-03       4.007881515099e+03 
       4.553178558661e-03       4.757592120642e+03 
       5.732112191934e-03       5.572349636695e+03 
       7.216301701681e-03       6.403427503933e+03 
       9.084785591420e-03       7.225426002166e+03 
       1.143706744174e-02       7.952901869465e+03 
       1.439841483881e-02       8.489788176239e+03 
       1.812653033010e-02       8.725228256706e+03 
       2.281994946867e-02       8.556618998270e+03 
       2.872847060469e-02       7.939585842135e+03 
       3.614747754319e-02       6.962085840593e+03 
       4.488239727026e-02       5.926915229418e+03 
       5.223123079578e-02       5.265804709947e+03 
       5.756361978242e-02       4.890190777939e+03 
       6.196341335959e-02       4.623985087283e+03 
       6.589296691430e-02       4.405594966684e+03 
       6.955856806168e-02       4.209808592097e+03 
       7.306947396721e-02       4.024603240128e+03 
       7.649122674225e-02       3.844068997069e+03 
       7.986689377191e-02       3.665692792025e+03 
       8.322683588096e-02       3.489075641444e+03 
       8.659370969734e-02       3.315185855861e+03 
       8.998524825785e-02       3.145828714318e+03 
       9.341590905609e-02       2.983211759266e+03 
       9.689790234224e-02       2.829565946050e+03 
       1.004418601718e-01       2.686816355642e+03 
       1.040572869932e-01       2.556311347872e+03 
       1.077528718880e-01       2.438622620791e+03 
       1.115367100779e-01       2.333428611351e+03 
       1.154164630767e-01       2.239492814866e+03 
       1.193994762174e-01       2.154747786808e+03 
       1.234928658559e-01       2.076494163765e+03 
       1.277035845542e-01       2.001716525020e+03 
       1.320384700042e-01       1.927498731245e+03 
       1.365042818024e-01       1.851490053587e+03 
       1.411077290987e-01       1.772336144362e+03 
       1.458554914232e-01       1.689963212433e+03 
       1.507542345125e-01       1.605610781637e+03 
       1.558106226382e-01       1.521559708976e+03 
       1.610313287326e-01       1.440589492083e+03 
       1.664230434656e-01       1.365288465615e+03 
       1.719924843450e-01       1.297395189371e+03 
       1.777464058542e-01       1.237347464058e+03 
       1.836916116107e-01       1.184166781073e+03 
       1.898349695035e-01       1.135733089666e+03 
       1.961834307569e-01       1.089415429461e+03 
       2.027440538561e-01       1.042909256161e+03 
       2.095240342669e-01       9.950083610507e+02 
       2.165307408831e-01       9.459861914180e+02 
       2.237717601531e-01       8.973736483627e+02 
       2.312549488698e-01       8.511960811568e+02 
       2.389884966725e-01       8.090188644910e+02 
       2.469809994188e-01       7.712578800406e+02 
       2.552415447420e-01       7.370774806991e+02 
       2.637798113510e-01       7.049136360921e+02 
       2.726061839604e-01       6.733480629000e+02 
       2.817318862007e-01       6.418433839189e+02 
       2.911691344722e-01       6.108893187026e+02 
       3.009313165329e-01       5.814798390193e+02 
       3.110331996999e-01       5.543191672974e+02 
       3.214911749861e-01       5.293418257474e+02 
       3.323235454027e-01       5.058654720924e+02 
       3.435508692029e-01       4.831931854512e+02 
       3.551963722565e-01       4.611287023673e+02 
       3.672864483786e-01       4.399686237191e+02 
       3.798512727892e-01       4.200481729277e+02 
       3.929255627225e-01       4.013485378173e+02 
       4.065495316740e-01       3.835542949299e+02 
       4.207701016527e-01       3.664169677230e+02 
       4.356424638667e-01       3.499510778210e+02 
       4.512321169913e-01       3.342595702230e+02 
       4.676175708437e-01       3.192969023809e+02 
       4.848939942200e-01       3.049091677807e+02 
       5.031782300412e-01       2.910190954308e+02 
       5.226158365354e-01       2.776252883219e+02 
       5.433912093532e-01       2.646717295298e+02 
       5.657425287382e-01       2.520603379592e+02 
       5.899845217208e-01       2.397268483376e+02 
       6.165443811896e-01       2.275956428089e+02 
       6.460208479810e-01       2.155544410266e+02 
       6.792862457074e-01       2.034784934016e+02 
       7.176731166452e-01       1.911944308698e+02 
       7.633394249053e-01       1.784567977815e+02 
       8.200402511382e-01       1.648930889832e+02 
       8.948898125143e-01       1.499074675450e+02 
       1.002524124404e+00       1.325599762795e+02 
       1.172795413161e+00       1.118014973424e+02 
       1.443706110989e+00       8.869400162964e+01 
       1.814555207798e+00       6.770636249358e+01 
       2.284333880112e+00       5.038003701851e+01 
       2.875805765194e+00       3.639111253874e+01 
       3.620424957081e+00       2.542572360744e+01 
       4.557844979963e+00       1.717333411033e+01 
       5.737986868294e+00       1.124346919500e+01 
       7.223697481036e+00       7.167532055525e+00 
       9.094096325990e+00       4.470690061349e+00 
       1.144878896209e+01       2.740800171822e+00 
