# Matter power spectrum P(k) at redshift z=2
# for k=2.24252e-07 to 11.2533 h/Mpc,
# number of wavenumbers equal to 139
#    1:k (h/Mpc)              2:P (Mpc/h)^3        
       2.242517329970e-07       1.893465899866e-01 
       2.823162053088e-07       2.356500237903e-01 
       3.554150450246e-07       2.932766505453e-01 
       4.474410319154e-07       3.649954808426e-01 
       5.632948853578e-07       4.542526680602e-01 
       7.091462455106e-07       5.653370990102e-01 
       8.927622291517e-07       7.035864787289e-01 
       1.123921056969e-06       8.756438115766e-01 
       1.414932779469e-06       1.089776602919e+00 
       1.781294832054e-06       1.356274119080e+00 
       2.242517329970e-06       1.687941793757e+00 
       2.823162053088e-06       2.100716535316e+00 
       3.554150450246e-06       2.614432501825e+00 
       4.474410319154e-06       3.253774132845e+00 
       5.632948853578e-06       4.049462224885e+00 
       7.091462455106e-06       5.039730028850e+00 
       8.927622291517e-06       6.272160260431e+00 
       1.123921056969e-05       7.805971238658e+00 
       1.414932779469e-05       9.714861874669e+00 
       1.781294832054e-05       1.209055198016e+01 
       2.242517329970e-05       1.504718752657e+01 
       2.823162053088e-05       1.872682160686e+01 
       3.554150450246e-05       2.330623260130e+01 
       4.474410319154e-05       2.900540354334e+01 
       5.632948853578e-05       3.609806293745e+01 
       7.091462455106e-05       4.492477940841e+01 
       8.927622291517e-05       5.590921166075e+01 
       1.123921056969e-04       6.957824007981e+01 
       1.414932779469e-04       8.658684086621e+01 
       1.781294832054e-04       1.077486906431e+02 
       2.242517329970e-04       1.340735720137e+02 
       2.823162053088e-04       1.668126144211e+02 
       3.554150450246e-04       2.075121182075e+02 
       4.474410319154e-04       2.580759656214e+02 
       5.632948853578e-04       3.208351701182e+02 
       7.091462455106e-04       3.986208242749e+02 
       8.927622291517e-04       4.948339145145e+02 
       1.123921056969e-03       6.135028890893e+02 
       1.414932779469e-03       7.593153617557e+02 
       1.781294832054e-03       9.375832876887e+02 
       2.242517329970e-03       1.154090617214e+03 
       2.823162053088e-03       1.414690910396e+03 
       3.554150450246e-03       1.724620198851e+03 
       4.474410319154e-03       2.084296871120e+03 
       5.632948853578e-03       2.498355109627e+03 
       7.091462455106e-03       2.958471109646e+03 
       8.927622291517e-03       3.448628290771e+03 
       1.123921056969e-02       3.938467640878e+03 
       1.414932779469e-02       4.378505861237e+03 
       1.781294831988e-02       4.698179418613e+03 
       2.242517138587e-02       4.814333400587e+03 
       2.823083221098e-02       4.662721470395e+03 
       3.547538046896e-02       4.260839061960e+03 
       4.337273091147e-02       3.803496941805e+03 
       4.931958638819e-02       3.524218794309e+03 
       5.382148242865e-02       3.354790031118e+03 
       5.765694216322e-02       3.232186598847e+03 
       6.114158719585e-02       3.131512099103e+03 
       6.442517045369e-02       3.040672157774e+03 
       6.759073703294e-02       2.952830255817e+03 
       7.068978066864e-02       2.863890145418e+03 
       7.375699827245e-02       2.771507751305e+03 
       7.681734548916e-02       2.674645011273e+03 
       7.988975811952e-02       2.573325550968e+03 
       8.298926864322e-02       2.468452222977e+03 
       8.612828374812e-02       2.361625217349e+03 
       8.931739331990e-02       2.254935374728e+03 
       9.256590323513e-02       2.150727421439e+03 
       9.588219780737e-02       2.051344241174e+03 
       9.927399303922e-02       1.958868130167e+03 
       1.027485175005e-01       1.874881065280e+03 
       1.063126438082e-01       1.800264069487e+03 
       1.099729855068e-01       1.735054708584e+03 
       1.137359691544e-01       1.678380492400e+03 
       1.176078882990e-01       1.628488394535e+03 
       1.215949440202e-01       1.582893314364e+03 
       1.257032754058e-01       1.538664382042e+03 
       1.299389824725e-01       1.492849563142e+03 
       1.343081434606e-01       1.442999455731e+03 
       1.388168280543e-01       1.387696430354e+03 
       1.434711078238e-01       1.326948191851e+03 
       1.482770650196e-01       1.262295759769e+03 
       1.532408007419e-01       1.196543088118e+03 
       1.583684434419e-01       1.133126479685e+03 
       1.636661586660e-01       1.075268902829e+03 
       1.691401609317e-01       1.025141149703e+03 
       1.747967286037e-01       9.832536123113e+02 
       1.806422226286e-01       9.482487478001e+02 
       1.866831099790e-01       9.171999971498e+02 
       1.929259926554e-01       8.864407182298e+02 
       1.993776431011e-01       8.527864273105e+02 
       2.060450469021e-01       8.147621500951e+02 
       2.129354536865e-01       7.732590593410e+02 
       2.200564372059e-01       7.311726829318e+02 
       2.274159656937e-01       6.920781333642e+02 
       2.350224837645e-01       6.585580102679e+02 
       2.428850073597e-01       6.309986308713e+02 
       2.510132335858e-01       6.074382885626e+02 
       2.594176677513e-01       5.846134683961e+02 
       2.681097705279e-01       5.598052339446e+02 
       2.771021289876e-01       5.324754890967e+02 
       2.864086563526e-01       5.045103263928e+02 
       2.960448267394e-01       4.787473960388e+02 
       3.060279530865e-01       4.568455996415e+02 
       3.163775190096e-01       4.381151277604e+02 
       3.271155787617e-01       4.202103176915e+02 
       3.382672441558e-01       4.012020924410e+02 
       3.498612837541e-01       3.812597004002e+02 
       3.619308686345e-01       3.622348785486e+02 
       3.745145118193e-01       3.455241284515e+02 
       3.876572668600e-01       3.305681009022e+02 
       4.014122780781e-01       3.156993565247e+02 
       4.158428153279e-01       3.003098545381e+02 
       4.310249877771e-01       2.854502368824e+02 
       4.470514274370e-01       2.719878329787e+02 
       4.640363873301e-01       2.592355388296e+02 
       4.821229531297e-01       2.463131688271e+02 
       5.014934987854e-01       2.336795671251e+02 
       5.223852768457e-01       2.218177081921e+02 
       5.451144273467e-01       2.100958025558e+02 
       5.701143605158e-01       1.983938668095e+02 
       5.979998614502e-01       1.869992416238e+02 
       6.296798066538e-01       1.754657032831e+02 
       6.665677508207e-01       1.638126804462e+02 
       7.110042335270e-01       1.517118325866e+02 
       7.671731144099e-01       1.388664746123e+02 
       8.432373712439e-01       1.247041008893e+02 
       9.562662188401e-01       1.084487531859e+02 
       1.138703891415e+00       8.970223262526e+01 
       1.417399687255e+00       7.074146936021e+01 
       1.783543073093e+00       5.464927550763e+01 
       2.245338037818e+00       4.140078027092e+01 
       2.826713094491e+00       3.051537087266e+01 
       3.558620946502e+00       2.174926567271e+01 
       4.480038340494e+00       1.494503258389e+01 
       5.640034112660e+00       9.912101416927e+00 
       7.100382267814e+00       6.373270994554e+00 
       8.938851670403e+00       3.994855226779e+00 
       1.125334752013e+01       2.454177523564e+00 
