# Matter power spectrum P(k) at redshift z=0.5
# for k=1.60924e-07 to 10.1651 h/Mpc,
# number of wavenumbers equal to 140
#    1:k (h/Mpc)              2:P (Mpc/h)^3        
       1.609238818975e-07       1.229160977338e+00 
       2.025911642854e-07       1.536946547445e+00 
       2.550471649238e-07       1.921802540384e+00 
       3.210853571287e-07       2.403027618537e+00 
       4.042225154443e-07       3.004752885624e+00 
       5.088859967122e-07       3.757151943504e+00 
       6.406495129671e-07       4.697953949353e+00 
       8.065299519279e-07       5.874335544927e+00 
       1.015361051855e-06       7.345286526185e+00 
       1.278263830327e-06       9.184567874928e+00 
       1.609238818975e-06       1.148441047380e+01 
       2.025911642854e-06       1.436013995690e+01 
       2.550471649238e-06       1.795595957023e+01 
       3.210853571287e-06       2.245218094781e+01 
       4.042225154443e-06       2.807426523118e+01 
       5.088859967122e-06       3.510412760051e+01 
       6.406495129671e-06       4.389427146947e+01 
       8.065299519279e-06       5.488545989672e+01 
       1.015361051855e-05       6.862880795306e+01 
       1.278263830327e-05       8.581339912952e+01 
       1.609238818975e-05       1.073008012078e+02 
       2.025911642854e-05       1.341681937858e+02 
       2.550471649238e-05       1.677622332206e+02 
       3.210853571287e-05       2.097662831685e+02 
       4.042225154443e-05       2.622842378855e+02 
       5.088859967122e-05       3.279448572962e+02 
       6.406495129671e-05       4.100312860511e+02 
       8.065299519279e-05       5.126411544241e+02 
       1.015361051855e-04       6.408831525833e+02 
       1.278263830327e-04       8.011158158885e+02 
       1.609238818975e-04       1.001232680173e+03 
       2.025911642854e-04       1.250993657290e+03 
       2.550471649238e-04       1.562393612381e+03 
       3.210853571287e-04       1.950044028571e+03 
       4.042225154443e-04       2.431523058358e+03 
       5.088859967122e-04       3.027629192171e+03 
       6.406495129671e-04       3.762458266687e+03 
       8.065299519279e-04       4.663171571371e+03 
       1.015361051855e-03       5.759114923491e+03 
       1.278263830327e-03       7.079663774177e+03 
       1.609238818975e-03       8.650361065965e+03 
       2.025911642854e-03       1.048697560869e+04 
       2.550471649238e-03       1.258720345591e+04 
       3.210853571287e-03       1.492018430965e+04 
       4.042225154443e-03       1.741180048880e+04 
       5.088859967122e-03       1.991494973297e+04 
       6.406495129671e-03       2.224245324431e+04 
       8.065299519279e-03       2.408091531829e+04 
       1.015361051855e-02       2.502609377583e+04 
       1.278263830326e-02       2.460352189234e+04 
       1.609238814112e-02       2.239902802231e+04 
       2.025906906124e-02       1.836939534972e+04 
       2.549670330479e-02       1.328040460385e+04 
       3.178995780979e-02       8.879919798287e+03 
       3.739042448317e-02       6.764677898945e+03 
       4.141073785669e-02       6.024458085308e+03 
       4.467781702261e-02       5.728390583990e+03 
       4.757236418596e-02       5.596823564906e+03 
       5.025999718924e-02       5.519457579242e+03 
       5.282666095429e-02       5.439333214311e+03 
       5.532316710859e-02       5.323214566841e+03 
       5.778254115351e-02       5.152422427820e+03 
       6.022786477684e-02       4.919594342611e+03 
       6.267624059552e-02       4.627095562738e+03 
       6.514097420775e-02       4.285520502385e+03 
       6.763285735266e-02       3.911708554118e+03 
       7.016096346731e-02       3.526196577380e+03 
       7.273316261570e-02       3.150360484190e+03 
       7.535646679163e-02       2.803683710573e+03 
       7.803726835109e-02       2.501618939075e+03 
       8.078150866795e-02       2.254364307783e+03 
       8.359479979031e-02       2.066591567636e+03 
       8.648251355848e-02       1.937846466525e+03 
       8.944984764467e-02       1.863142783269e+03 
       9.250187487739e-02       1.833328338505e+03 
       9.564358024810e-02       1.835154898877e+03 
       9.887988872547e-02       1.851498755058e+03 
       1.022156861668e-01       1.862547788125e+03 
       1.056558350616e-01       1.848639715793e+03 
       1.092051864722e-01       1.794641159356e+03 
       1.128685892922e-01       1.694566828936e+03 
       1.166508977807e-01       1.554282875835e+03 
       1.205569782232e-01       1.390455663975e+03 
       1.245917155076e-01       1.225616862568e+03 
       1.287600203562e-01       1.081385614500e+03 
       1.330668379316e-01       9.728647474004e+02 
       1.375171585172e-01       9.060636163180e+02 
       1.421160309614e-01       8.778733601177e+02 
       1.468685795671e-01       8.769607080472e+02 
       1.517800251057e-01       8.852677745417e+02 
       1.568557106339e-01       8.819086345520e+02 
       1.621011328028e-01       8.506543404638e+02 
       1.675219793719e-01       7.880156321682e+02 
       1.731241736827e-01       7.056450263357e+02 
       1.789139269214e-01       6.238883670043e+02 
       1.848977991097e-01       5.609101885051e+02 
       1.910827699294e-01       5.249346106904e+02 
       1.974763207168e-01       5.123887193436e+02 
       2.040865292835e-01       5.100685403378e+02 
       2.109221796550e-01       5.009315115337e+02 
       2.179928893892e-01       4.738733013979e+02 
       2.253092579077e-01       4.315887721995e+02 
       2.328830402776e-01       3.878730534738e+02 
       2.407273522223e-01       3.561319864924e+02 
       2.488569139159e-01       3.400705174969e+02 
       2.572883425067e-01       3.324668196273e+02 
       2.660405065430e-01       3.212589505157e+02 
       2.751349599038e-01       3.000798882624e+02 
       2.845964789825e-01       2.740711255436e+02 
       2.944537355253e-01       2.531696333495e+02 
       3.047401498991e-01       2.409958929075e+02 
       3.154949875697e-01       2.319543227156e+02 
       3.267647882358e-01       2.187763365280e+02 
       3.386052573737e-01       2.020011603688e+02 
       3.510838122071e-01       1.879732278334e+02 
       3.642830726481e-01       1.783839168268e+02 
       3.783057478887e-01       1.684433667517e+02 
       3.932816374642e-01       1.562233603454e+02 
       4.093779298431e-01       1.455273734814e+02 
       4.268148161730e-01       1.367026491445e+02 
       4.458900025458e-01       1.267674981591e+02 
       4.670187874592e-01       1.173088279754e+02 
       4.908027869244e-01       1.085312700085e+02 
       5.181545960488e-01       9.929905096129e+01 
       5.505393562546e-01       9.037444281683e+01 
       5.904797100180e-01       8.109211123490e+01 
       6.426976824430e-01       7.134033856223e+01 
       7.168181567881e-01       6.077497514894e+01 
       8.327657044513e-01       4.915505610858e+01 
       1.019170767702e+00       3.740644564013e+01 
       1.279774165729e+00       2.785791307412e+01 
       1.611064092652e+00       2.084203565909e+01 
       2.028209170507e+00       1.560538427208e+01 
       2.553364064939e+00       1.161471487372e+01 
       3.214494906913e+00       8.539766800443e+00 
       4.046809324396e+00       6.170029400345e+00 
       5.094631095168e+00       4.362339466966e+00 
       6.413760549424e+00       3.009263419281e+00 
       8.074446140832e+00       2.021964323869e+00 
       1.016512543286e+01       1.322975703069e+00 
