# Matter power spectrum P(k) at redshift z=1.5
# for k=1.82938e-07 to 11.5544 h/Mpc,
# number of wavenumbers equal to 140
#    1:k (h/Mpc)              2:P (Mpc/h)^3        
       1.829383502921e-07       7.114169002372e-01 
       2.303057379744e-07       8.816052701087e-01 
       2.899377460180e-07       1.092506871482e+00 
       3.650099963003e-07       1.353861307543e+00 
       4.595203599014e-07       1.677738132850e+00 
       5.785018583167e-07       2.079094234385e+00 
       7.282906902050e-07       2.576464551781e+00 
       9.168636570722e-07       3.192818033418e+00 
       1.154262957039e-06       3.956618356783e+00 
       1.453130968509e-06       4.903138396167e+00 
       1.829383502921e-06       6.076089137008e+00 
       2.303057379744e-06       7.529638254234e+00 
       2.899377460180e-06       9.330911560453e+00 
       3.650099963003e-06       1.156309281646e+01 
       4.595203599014e-06       1.432926499770e+01 
       5.785018583167e-06       1.775717031041e+01 
       7.282906902050e-06       2.200510856273e+01 
       9.168636570722e-06       2.726924588538e+01 
       1.154262957039e-05       3.379267050348e+01 
       1.453130968509e-05       4.187661221022e+01 
       1.829383502921e-05       5.189434055558e+01 
       2.303057379744e-05       6.430837752654e+01 
       2.899377460180e-05       7.969180767601e+01 
       3.650099963003e-05       9.875464648143e+01 
       4.595203599014e-05       1.223764387870e+02 
       5.785018583167e-05       1.516465031332e+02 
       7.282906902050e-05       1.879135050048e+02 
       9.168636570722e-05       2.328463066777e+02 
       1.154262957039e-04       2.885082404346e+02 
       1.453130968509e-04       3.574469571361e+02 
       1.829383502921e-04       4.428015645588e+02 
       2.303057379744e-04       5.484274462616e+02 
       2.899377460180e-04       6.790362404826e+02 
       3.650099963003e-04       8.403430620216e+02 
       4.595203599014e-04       1.039204613606e+03 
       5.785018583167e-04       1.283721562067e+03 
       7.282906902050e-04       1.583270862160e+03 
       9.168636570722e-04       1.948430289009e+03 
       1.154262957039e-03       2.390729015482e+03 
       1.453130968509e-03       2.922031997864e+03 
       1.829383502921e-03       3.553222702819e+03 
       2.303057379744e-03       4.292129076391e+03 
       2.899377460180e-03       5.140594565886e+03 
       3.650099963003e-03       6.090523816474e+03 
       4.595203599014e-03       7.113812514986e+03 
       5.785018583167e-03       8.172522865106e+03 
       7.282906902050e-03       9.189148412886e+03 
       9.168636570722e-03       1.005317936620e+04 
       1.154262957039e-02       1.061408745414e+04 
       1.453130968505e-02       1.069045248381e+04 
       1.829383482614e-02       1.011319563672e+04 
       2.303043178358e-02       8.830728038737e+03 
       2.897542953047e-02       7.066999706896e+03 
       3.592751350847e-02       5.446428264753e+03 
       4.168900533373e-02       4.603467702484e+03 
       4.588640349372e-02       4.221844490652e+03 
       4.936374910211e-02       4.004726479845e+03 
       5.247610081278e-02       3.854304846901e+03 
       5.538301290799e-02       3.729238784352e+03 
       5.816946222350e-02       3.608115315344e+03 
       6.088662869981e-02       3.478942101967e+03 
       6.356824337300e-02       3.335436150252e+03 
       6.623814193282e-02       3.175456513130e+03 
       6.891414664686e-02       3.000144206243e+03 
       7.161023006058e-02       2.813235769049e+03 
       7.433780018931e-02       2.620348616640e+03 
       7.710650382059e-02       2.428188633106e+03 
       7.992474992377e-02       2.243715157509e+03 
       8.280006257249e-02       2.073343424087e+03 
       8.573932574672e-02       1.922272476135e+03 
       8.874895713770e-02       1.793999836647e+03 
       9.183503389123e-02       1.690038670585e+03 
       9.500338492944e-02       1.609808601193e+03 
       9.825965947564e-02       1.550652993334e+03 
       1.016093782868e-01       1.507966312693e+03 
       1.050579721101e-01       1.475480733608e+03 
       1.086108105905e-01       1.445825095321e+03 
       1.122732240045e-01       1.411463943843e+03 
       1.160505196348e-01       1.366004062089e+03 
       1.199479942200e-01       1.305631966390e+03 
       1.239709436668e-01       1.230225399617e+03 
       1.281246710486e-01       1.143626541936e+03 
       1.324144938038e-01       1.052793128459e+03 
       1.368457509842e-01       9.659964064197e+02 
       1.414238113583e-01       8.906610260333e+02 
       1.461540831487e-01       8.315507034480e+02 
       1.510420261667e-01       7.897318773918e+02 
       1.560931670949e-01       7.623745914790e+02 
       1.613131186610e-01       7.433407147294e+02 
       1.667076034455e-01       7.246741646222e+02 
       1.722824830622e-01       6.990612816427e+02 
       1.780437934719e-01       6.626668346527e+02 
       1.839977872094e-01       6.169021837031e+02 
       1.901509833635e-01       5.677685559321e+02 
       1.965102262295e-01       5.228712915425e+02 
       2.030827536900e-01       4.878118553216e+02 
       2.098762765674e-01       4.638419845325e+02 
       2.168990704608e-01       4.475833129450e+02 
       2.241600819502e-01       4.327799477225e+02 
       2.316690515453e-01       4.136639311363e+02 
       2.394366564205e-01       3.884250535988e+02 
       2.474746768492e-01       3.602056178767e+02 
       2.557961914135e-01       3.344718317015e+02 
       2.644158075956e-01       3.148688440421e+02 
       2.733499364030e-01       3.008136810378e+02 
       2.826171224237e-01       2.883424431579e+02 
       2.922384444328e-01       2.735716170949e+02 
       3.022380067862e-01       2.561005840995e+02 
       3.126435489484e-01       2.389511400827e+02 
       3.234872105514e-01       2.249988321491e+02 
       3.348065037835e-01       2.139428689674e+02 
       3.466455659282e-01       2.030769313420e+02 
       3.590567961187e-01       1.908415660673e+02 
       3.721030277669e-01       1.786069172881e+02 
       3.858604616328e-01       1.681662665862e+02 
       4.004227013397e-01       1.589285762073e+02 
       4.159064239787e-01       1.493026443072e+02 
       4.324595397636e-01       1.396051219003e+02 
       4.502732544688e-01       1.308974541655e+02 
       4.696004618052e-01       1.225393809701e+02 
       4.907848093790e-01       1.140325661435e+02 
       5.143085903324e-01       1.059880054735e+02 
       5.408756193644e-01       9.798523757447e+01 
       5.715631857116e-01       8.999943808201e+01 
       6.081202148266e-01       8.192309185277e+01 
       6.535992235608e-01       7.358330059001e+01 
       7.138030427928e-01       6.470090151614e+01 
       8.006982829499e-01       5.494634692255e+01 
       9.385604239827e-01       4.415301099095e+01 
       1.157112982910e+00       3.344060914470e+01 
       1.454637793927e+00       2.488062171843e+01 
       1.831243528054e+00       1.850396302781e+01 
       2.305398885448e+00       1.367787653180e+01 
       2.902325241152e+00       9.980017528898e+00 
       3.653810999378e+00       7.146218168609e+00 
       4.599875517010e+00       4.999756977987e+00 
       5.790900179454e+00       3.408069118851e+00 
       7.290311393078e+00       2.260151725296e+00 
       9.177958272638e+00       1.458352745235e+00 
       1.155436489781e+01       9.172182658797e-01 
