# Matter power spectrum P(k) at redshift z=0.5
# for k=1.84924e-07 to 11.6812 h/Mpc,
# number of wavenumbers equal to 140
#    1:k (h/Mpc)              2:P (Mpc/h)^3        
       1.849237584583e-07       1.217285028800e+00 
       2.328052187677e-07       1.515173201128e+00 
       2.930844059049e-07       1.885959141917e+00 
       3.689714063943e-07       2.347482043421e+00 
       4.645074797352e-07       2.921946618768e+00 
       5.847802702071e-07       3.636991409962e+00 
       7.361947424796e-07       4.527018526618e+00 
       9.268142693368e-07       5.634848789570e+00 
       1.166790035682e-06       7.013781909308e+00 
       1.468901626148e-06       8.730160813146e+00 
       1.849237584583e-06       1.086656348702e+01 
       2.328052187677e-06       1.352577587592e+01 
       2.930844059049e-06       1.683573695322e+01 
       3.689714063943e-06       2.095569380192e+01 
       4.645074797352e-06       2.608386268822e+01 
       5.847802702071e-06       3.246696444671e+01 
       7.361947424796e-06       4.041209236925e+01 
       9.268142693368e-06       5.030148247645e+01 
       1.166790035682e-05       6.261089463903e+01 
       1.468901626148e-05       7.793248457550e+01 
       1.849237584583e-05       9.700325866040e+01 
       2.328052187677e-05       1.207404638909e+02 
       2.930844059049e-05       1.502855827068e+02 
       3.689714063943e-05       1.870589845229e+02 
       4.645074797352e-05       2.328277358119e+02 
       5.847802702071e-05       2.897895805815e+02 
       7.361947424796e-05       3.606766409359e+02 
       9.268142693368e-05       4.488828690642e+02 
       1.166790035682e-04       5.586195258280e+02 
       1.468901626148e-04       6.951026032424e+02 
       1.849237584583e-04       8.647744815564e+02 
       2.328052187677e-04       1.075558112529e+03 
       2.930844059049e-04       1.337134129016e+03 
       3.689714063943e-04       1.661218183386e+03 
       4.645074797352e-04       2.061798363086e+03 
       5.847802702071e-04       2.555276238025e+03 
       7.361947424796e-04       3.160444030927e+03 
       9.268142693368e-04       3.898190267927e+03 
       1.166790035682e-03       4.790655243301e+03 
       1.468901626148e-03       5.859339073524e+03 
       1.849237584583e-03       7.121883958161e+03 
       2.328052187677e-03       8.587312744816e+03 
       2.930844059049e-03       1.024952654295e+04 
       3.689714063943e-03       1.207950499533e+04 
       4.645074797352e-03       1.401557255164e+04 
       5.847802702071e-03       1.592894397412e+04 
       7.361947424796e-03       1.770468901151e+04 
       9.268142693368e-03       1.911349350437e+04 
       1.166790035682e-02       1.988935458068e+04 
       1.468901626147e-02       1.973699769302e+04 
       1.849237579151e-02       1.841012785910e+04 
       2.328046859346e-02       1.588195017805e+04 
       2.929937346011e-02       1.258298765337e+04 
       3.653480737220e-02       9.544902646556e+03 
       4.298384384952e-02       7.897399135899e+03 
       4.761237838261e-02       7.187883492490e+03 
       5.137209092869e-02       6.792148151495e+03 
       5.470233510783e-02       6.512497993987e+03 
       5.779411399575e-02       6.272240568767e+03 
       6.074648916881e-02       6.034825508290e+03 
       6.361800312014e-02       5.781874947275e+03 
       6.644669453292e-02       5.505552412298e+03 
       6.925914246717e-02       5.205224573741e+03 
       7.207503707900e-02       4.885510061736e+03 
       7.490969448544e-02       4.554727753976e+03 
       7.777553531218e-02       4.223413475757e+03 
       8.068300122941e-02       3.902854316772e+03 
       8.364114809948e-02       3.603715614106e+03 
       8.665804368437e-02       3.334880466289e+03 
       8.974104223662e-02       3.102599528327e+03 
       9.289697871615e-02       2.909987265727e+03 
       9.613230887542e-02       2.756830104971e+03 
       9.945321187231e-02       2.639631898237e+03 
       1.028656663072e-01       2.551843851234e+03 
       1.063755070129e-01       2.484308252316e+03 
       1.099884676624e-01       2.426039709089e+03 
       1.137102127921e-01       2.365491090658e+03 
       1.175463618787e-01       2.292328499949e+03 
       1.215025074643e-01       2.199467502723e+03 
       1.255842289044e-01       2.084815593323e+03 
       1.297971030247e-01       1.952022573245e+03 
       1.341467127920e-01       1.809740954669e+03 
       1.386386549777e-01       1.669435070777e+03 
       1.432785477191e-01       1.542394381925e+03 
       1.480720388330e-01       1.436919106775e+03 
       1.530248157063e-01       1.356454726833e+03 
       1.581426175696e-01       1.298958914689e+03 
       1.634312509462e-01       1.257451274720e+03 
       1.688966090613e-01       1.221734459546e+03 
       1.745446959916e-01       1.181312127903e+03 
       1.803816563357e-01       1.129001680028e+03 
       1.864138111991e-01       1.063783796132e+03 
       1.926477013111e-01       9.911200291793e+02 
       1.990901381446e-01       9.201730971274e+02 
       2.057482639886e-01       8.593648361220e+02 
       2.126296220569e-01       8.126713025640e+02 
       2.197422378998e-01       7.782697802675e+02 
       2.270947136569e-01       7.498309356898e+02 
       2.346963370552e-01       7.199386292928e+02 
       2.425572075519e-01       6.842340937473e+02 
       2.506883826861e-01       6.437856494041e+02 
       2.591020485794e-01       6.037440171975e+02 
       2.678117196874e-01       5.692383553377e+02 
       2.768324744394e-01       5.417718163271e+02 
       2.861812354483e-01       5.186485831966e+02 
       2.958771057160e-01       4.955693649421e+02 
       3.059417759689e-01       4.703157556956e+02 
       3.164000233486e-01       4.442998760056e+02 
       3.272803287387e-01       4.204983928491e+02 
       3.386156499483e-01       4.001306464797e+02 
       3.504444021905e-01       3.816864412078e+02 
       3.628117179637e-01       3.630900475573e+02 
       3.757710890756e-01       3.441942821658e+02 
       3.893865398290e-01       3.264115614554e+02 
       4.037355518847e-01       3.103041469881e+02 
       4.189130744342e-01       2.949067739709e+02 
       4.350371371540e-01       2.795619243508e+02 
       4.522568911986e-01       2.648019199249e+02 
       4.707644362942e-01       2.508569050088e+02 
       4.908127497067e-01       2.371781412844e+02 
       5.127438292910e-01       2.237196818626e+02 
       5.370346997820e-01       2.105946967488e+02 
       5.643762895889e-01       1.974811495380e+02 
       5.958164743601e-01       1.843077251914e+02 
       6.330371913433e-01       1.708085453186e+02 
       6.789335286398e-01       1.566673014178e+02 
       7.389228959339e-01       1.413586577289e+02 
       8.240446075699e-01       1.241002867824e+02 
       9.571584689335e-01       1.040475344405e+02 
       1.171210039670e+00       8.213495417877e+01 
       1.470644752114e+00       6.260861620625e+01 
       1.851343013566e+00       4.701886182000e+01 
       2.330702346948e+00       3.468216316818e+01 
       2.934180411609e+00       2.500793829622e+01 
       3.693914282963e+00       1.756348418486e+01 
       4.650362559812e+00       1.198759627767e+01 
       5.854459600603e+00       7.949483583865e+00 
       7.370327963522e+00       5.132060592402e+00 
       9.278693166534e+00       3.236465408637e+00 
       1.168118261559e+01       2.001472443601e+00 
