# Matter power spectrum P(k) at redshift z=1
# for k=1.5759e-07 to 12.5306 h/Mpc,
# number of wavenumbers equal to 141
#    1:k (h/Mpc)              2:P (Mpc/h)^3        
       1.575898001593e-07       1.135435650230e+00 
       1.983938040601e-07       1.415052410913e+00 
       2.497630014738e-07       1.763528672319e+00 
       3.144329894814e-07       2.197822039670e+00 
       3.958476807645e-07       2.739066162345e+00 
       4.983427045142e-07       3.413599141555e+00 
       6.273762944952e-07       4.254245196945e+00 
       7.898199598972e-07       5.301911959136e+00 
       9.943244182569e-07       6.607581113880e+00 
       1.251780277711e-06       8.234789262315e+00 
       1.575898001593e-06       1.026271971257e+01 
       1.983938040601e-06       1.279005563828e+01 
       2.497630014738e-06       1.593978207176e+01 
       3.144329894814e-06       1.986517034255e+01 
       3.958476807645e-06       2.475723603143e+01 
       4.983427045142e-06       3.085403310742e+01 
       6.273762944952e-06       3.845223598129e+01 
       7.898199598972e-06       4.792157204217e+01 
       9.943244182569e-06       5.972280494852e+01 
       1.251780277711e-05       7.443013968967e+01 
       1.575898001593e-05       9.275913170717e+01 
       1.983938040601e-05       1.156014422882e+02 
       2.497630014738e-05       1.440681003214e+02 
       3.144329894814e-05       1.795433138816e+02 
       3.958476807645e-05       2.237513287446e+02 
       4.983427045142e-05       2.788393482398e+02 
       6.273762944952e-05       3.474800801217e+02 
       7.898199598972e-05       4.329979821665e+02 
       9.943244182569e-05       5.395235636025e+02 
       1.251780277711e-04       6.721798066916e+02 
       1.575898001593e-04       8.373032337580e+02 
       1.983938040601e-04       1.042698216270e+03 
       2.497630014738e-04       1.297915122332e+03 
       3.144329894814e-04       1.614529083198e+03 
       3.958476807645e-04       2.006376606286e+03 
       4.983427045142e-04       2.489687534053e+03 
       6.273762944952e-04       3.083040011384e+03 
       7.898199598972e-04       3.807050219127e+03 
       9.943244182569e-04       4.683577579700e+03 
       1.251780277711e-03       5.733914356935e+03 
       1.575898001593e-03       6.975475364322e+03 
       1.983938040601e-03       8.416989777954e+03 
       2.497630014738e-03       1.005207392522e+04 
       3.144329894814e-03       1.185119712504e+04 
       3.958476807645e-03       1.375126489017e+04 
       4.983427045142e-03       1.563541069560e+04 
       6.273762944952e-03       1.735803860519e+04 
       7.898199598972e-03       1.868784022310e+04 
       9.943244182569e-03       1.933856185073e+04 
       1.251780277709e-02       1.899058580881e+04 
       1.575897988713e-02       1.738706775805e+04 
       1.983928298942e-02       1.454268590520e+04 
       2.496288698846e-02       1.101753179091e+04 
       3.099903216498e-02       8.029300276441e+03 
       3.608477296443e-02       6.599812731544e+03 
       3.977369387210e-02       6.024468267790e+03 
       4.281625562827e-02       5.731855552991e+03 
       4.553307150143e-02       5.543955941481e+03 
       4.806709051990e-02       5.387959501625e+03 
       5.049398293120e-02       5.227015382362e+03 
       5.285912504013e-02       5.041244287025e+03 
       5.519232478540e-02       4.821259159294e+03 
       5.751459079609e-02       4.565435466969e+03 
       5.984159770718e-02       4.278290207497e+03 
       6.218561187834e-02       3.969037359658e+03 
       6.455663251809e-02       3.650008876121e+03 
       6.696310356839e-02       3.334929127278e+03 
       6.941237681835e-02       3.037191686516e+03 
       7.191102376424e-02       2.768351694427e+03 
       7.446505169605e-02       2.537018070588e+03 
       7.708005698034e-02       2.348230891404e+03 
       7.976133587845e-02       2.203273781215e+03 
       8.251396586657e-02       2.099765218519e+03 
       8.534286597183e-02       2.031863440151e+03 
       8.825284187177e-02       1.990532163373e+03 
       9.124861974388e-02       1.964011932740e+03 
       9.433487170908e-02       1.938803551166e+03 
       9.751623496151e-02       1.901441718176e+03 
       1.007973261777e-01       1.841020690369e+03 
       1.041827524658e-01       1.751905681824e+03 
       1.076771198936e-01       1.635608007962e+03 
       1.112850404912e-01       1.500803923435e+03 
       1.150111385255e-01       1.361127475627e+03 
       1.188600567891e-01       1.231404716051e+03 
       1.228364636031e-01       1.123749714223e+03 
       1.269450612140e-01       1.044833256161e+03 
       1.311905962473e-01       9.947760522898e+02 
       1.355778728732e-01       9.673431260872e+02 
       1.401117693290e-01       9.511876947296e+02 
       1.447972584445e-01       9.325217988655e+02 
       1.496394328152e-01       8.995057802920e+02 
       1.546435352799e-01       8.471211270628e+02 
       1.598149953838e-01       7.796386814194e+02 
       1.651594725520e-01       7.084407973221e+02 
       1.706829067716e-01       6.461788958314e+02 
       1.763915776937e-01       6.008927967781e+02 
       1.822921732277e-01       5.730300981756e+02 
       1.883918689356e-01       5.558761670262e+02 
       1.946984198443e-01       5.389330669230e+02 
       2.012202667269e-01       5.135888230792e+02 
       2.079666594673e-01       4.783811172100e+02 
       2.149478008787e-01       4.395216914803e+02 
       2.221750153416e-01       4.056980669588e+02 
       2.296609479430e-01       3.816166288451e+02 
       2.374198015583e-01       3.652294845631e+02 
       2.454676216728e-01       3.500013593499e+02 
       2.538226419383e-01       3.305720439212e+02 
       2.625057078493e-01       3.073627034682e+02 
       2.715408020220e-01       2.853320490249e+02 
       2.809557031730e-01       2.682098683134e+02 
       2.907828232282e-01       2.547905457743e+02 
       3.010602849871e-01       2.410414221722e+02 
       3.118333294832e-01       2.253209662736e+02 
       3.231561826764e-01       2.099826204297e+02 
       3.350945738589e-01       1.972164908449e+02 
       3.477291977771e-01       1.857906912453e+02 
       3.611605750007e-01       1.737215625804e+02 
       3.755160383505e-01       1.617635725188e+02 
       3.909600485685e-01       1.511396083153e+02 
       4.077099015765e-01       1.408495838957e+02 
       4.260605112928e-01       1.304668454295e+02 
       4.464251674046e-01       1.207158624547e+02 
       4.694059105326e-01       1.110200378662e+02 
       4.959222289736e-01       1.014273028083e+02 
       5.274628218192e-01       9.177164261579e+01 
       5.666174334697e-01       8.188235315647e+01 
       6.182908914073e-01       7.145378600454e+01 
       6.925714951679e-01       6.014067948514e+01 
       8.100458135491e-01       4.780920933400e+01 
       9.970155666362e-01       3.575567161472e+01 
       1.253096155462e+00       2.633491726740e+01 
       1.577515367003e+00       1.952194348948e+01 
       1.985974037567e+00       1.449323855215e+01 
       2.500193182981e+00       1.069950073548e+01 
       3.147556732449e+00       7.802594824006e+00 
       3.962539155544e+00       5.588975103404e+00 
       4.988541238144e+00       3.915165190889e+00 
       6.280201332482e+00       2.674515256232e+00 
       7.906305048646e+00       1.779083507488e+00 
       9.953448339137e+00       1.152341710052e+00 
       1.253064904912e+01       7.278503647712e-01 
