# Matter power spectrum P(k) at redshift z=2
# for k=1.95146e-07 to 12.3264 h/Mpc,
# number of wavenumbers equal to 140
#    1:k (h/Mpc)              2:P (Mpc/h)^3        
       1.951458129818e-07       3.358020511360e-01 
       2.456740229680e-07       4.167670195325e-01 
       3.092852705321e-07       5.172533876019e-01 
       3.893670865665e-07       6.419679444778e-01 
       4.901841197948e-07       7.967523292225e-01 
       6.171052448676e-07       9.888566534399e-01 
       7.768894745153e-07       1.227279096461e+00 
       9.780459016228e-07       1.523187379797e+00 
       1.231286839454e-06       1.890441861731e+00 
       1.550098291396e-06       2.346244753726e+00 
       1.951458129818e-06       2.911945864877e+00 
       2.456740229680e-06       3.614042611772e+00 
       3.092852705321e-06       4.485421129065e+00 
       3.893670865665e-06       5.566896593483e+00 
       4.901841197948e-06       6.909124886605e+00 
       6.171052448676e-06       8.574975076453e+00 
       7.768894745153e-06       1.064247372505e+01 
       9.780459016228e-06       1.320845872453e+01 
       1.231286839454e-05       1.639311331306e+01 
       1.550098291396e-05       2.034559182614e+01 
       1.951458129818e-05       2.525099889015e+01 
       2.456740229680e-05       3.133904559589e+01 
       3.092852705321e-05       3.889478135557e+01 
       3.893670865665e-05       4.827189093654e+01 
       4.901841197948e-05       5.990915360377e+01 
       6.171052448676e-05       7.435078436460e+01 
       7.768894745153e-05       9.227151062865e+01 
       9.780459016228e-05       1.145073640461e+02 
       1.231286839454e-04       1.420932510654e+02 
       1.550098291396e-04       1.763083290882e+02 
       1.951458129818e-04       2.187299101809e+02 
       2.456740229680e-04       2.712957719424e+02 
       3.092852705321e-04       3.363729333034e+02 
       3.893670865665e-04       4.168275493213e+02 
       4.901841197948e-04       5.160850924449e+02 
       6.171052448676e-04       6.381629294386e+02 
       7.768894745153e-04       7.876518497488e+02 
       9.780459016228e-04       9.696237977309e+02 
       1.231286839454e-03       1.189441940210e+03 
       1.550098291396e-03       1.452397689381e+03 
       1.951458129818e-03       1.762982543246e+03 
       2.456740229680e-03       2.123689892841e+03 
       3.092852705321e-03       2.533506564323e+03 
       3.893670865665e-03       2.986012312709e+03 
       4.901841197948e-03       3.467027338549e+03 
       6.171052448676e-03       3.950621088177e+03 
       7.768894745153e-03       4.402591828600e+03 
       9.780459016228e-03       4.771124582328e+03 
       1.231286839454e-02       4.991936882471e+03 
       1.550098291395e-02       4.992732956272e+03 
       1.951458122388e-02       4.711115261782e+03 
       2.456733404388e-02       4.134139406614e+03 
       3.091751751487e-02       3.355395495693e+03 
       3.851689236610e-02       2.617879800574e+03 
       4.519420713488e-02       2.204872317435e+03 
       4.999633616156e-02       2.015529305402e+03 
       5.391242156917e-02       1.903384574852e+03 
       5.738837844840e-02       1.820886341820e+03 
       6.061927661626e-02       1.749230251047e+03 
       6.370681362607e-02       1.679369526993e+03 
       6.671131269315e-02       1.606719427256e+03 
       6.967207811820e-02       1.529281403340e+03 
       7.261663323411e-02       1.446813516631e+03 
       7.556540431012e-02       1.360348024471e+03 
       7.853430418091e-02       1.271815137750e+03 
       8.153625424521e-02       1.183688848085e+03 
       8.458212945156e-02       1.098639312371e+03 
       8.768137066224e-02       1.019205255620e+03 
       9.084239569147e-02       9.475124287729e+02 
       9.407288335517e-02       8.850595891953e+02 
       9.737997452558e-02       8.325813213222e+02 
       1.007704172340e-01       7.899837154713e+02 
       1.042506730070e-01       7.563422223591e+02 
       1.078269956885e-01       7.299557120378e+02 
       1.115054903217e-01       7.084687564834e+02 
       1.152921573308e-01       6.890899884999e+02 
       1.191929257282e-01       6.689343550208e+02 
       1.232136780813e-01       6.454826923084e+02 
       1.273602693107e-01       6.170877936034e+02 
       1.316385409535e-01       5.833861116693e+02 
       1.360543322340e-01       5.454486678912e+02 
       1.406134890896e-01       5.055603818293e+02 
       1.453218721767e-01       4.666506238046e+02 
       1.501853647993e-01       4.315412782704e+02 
       1.552098816562e-01       4.022456012096e+02 
       1.604013792672e-01       3.795029463426e+02 
       1.657658689233e-01       3.626260517958e+02 
       1.713094329893e-01       3.496688773075e+02 
       1.770382453808e-01       3.379222392476e+02 
       1.829585970324e-01       3.247199903693e+02 
       1.890769271736e-01       3.083787916743e+02 
       1.953998612449e-01       2.888696860727e+02 
       2.019342563124e-01       2.677946499790e+02 
       2.086872548916e-01       2.475883414893e+02 
       2.156663481829e-01       2.303557093759e+02 
       2.228794498553e-01       2.169527195148e+02 
       2.303349817147e-01       2.067031014849e+02 
       2.380419728788e-01       1.978229256178e+02 
       2.460101744648e-01       1.883922743574e+02 
       2.542501923256e-01       1.774369295638e+02 
       2.627736410689e-01       1.654359218777e+02 
       2.715933235195e-01       1.538306395822e+02 
       2.807234410158e-01       1.438992219982e+02 
       2.901798415508e-01       1.358731469767e+02 
       2.999803149346e-01       1.289081608629e+02 
       3.101449470510e-01       1.218704602799e+02 
       3.206965492127e-01       1.142998775633e+02 
       3.316611839996e-01       1.066884629950e+02 
       3.430688164434e-01       9.981839236808e+01 
       3.549541299508e-01       9.390579499860e+01 
       3.673575614279e-01       8.846947754863e+01 
       3.803266319971e-01       8.299192078530e+01 
       3.939176822081e-01       7.752060767479e+01 
       4.081981698040e-01       7.244412238731e+01 
       4.232497641026e-01       6.784648214582e+01 
       4.391725914019e-01       6.344100751172e+01 
       4.560911815955e-01       5.909798398894e+01 
       4.741629943046e-01       5.498076333437e+01 
       4.935909715301e-01       5.111461650973e+01 
       5.146425874318e-01       4.735205147682e+01 
       5.376797888467e-01       4.370707784564e+01 
       5.632080129539e-01       4.019806675178e+01 
       5.919603745340e-01       3.674617070048e+01 
       6.250506562951e-01       3.334633224260e+01 
       6.642704098989e-01       2.993976600506e+01 
       7.127114863036e-01       2.647177503109e+01 
       7.761768893434e-01       2.285359699169e+01 
       8.665204205508e-01       1.897785329398e+01 
       1.008213785391e+00       1.481014821189e+01 
       1.235562236153e+00       1.076897728204e+01 
       1.551868766969e+00       7.674663210678e+00 
       1.953607118725e+00       5.540205169554e+00 
       2.459445292042e+00       4.041925388206e+00 
       3.096258176839e+00       2.959675065967e+00 
       3.897958100298e+00       2.159059423783e+00 
       4.907238506574e+00       1.557826270535e+00 
       6.177847257661e+00       1.104681632194e+00 
       7.777448902852e+00       7.660437989460e-01 
       9.791228062731e+00       5.178405893478e-01 
       1.232642582084e+01       3.408228071340e-01 
