# Matter power spectrum P(k) at redshift z=1
# for k=2.03477e-07 to 10.2124 h/Mpc,
# number of wavenumbers equal to 139
#    1:k (h/Mpc)              2:P (Mpc/h)^3        
       2.034766374665e-07       5.872437179911e-01 
       2.561619096130e-07       7.314562905254e-01 
       3.224887375455e-07       9.110839131862e-01 
       4.059892667135e-07       1.134823648339e+00 
       5.111102047813e-07       1.413508341419e+00 
       6.434496250265e-07       1.760631116458e+00 
       8.100550841552e-07       2.192998673247e+00 
       1.019798930396e-06       2.731545017561e+00 
       1.283850788396e-06       3.402345020892e+00 
       1.616272382464e-06       4.237876881238e+00 
       2.034766374665e-06       5.278594601960e+00 
       2.561619096130e-06       6.574886616820e+00 
       3.224887375455e-06       8.189515368325e+00 
       4.059892667135e-06       1.020065591224e+01 
       5.111102047813e-06       1.270568059082e+01 
       6.434496250265e-06       1.582587284949e+01 
       8.100550841552e-06       1.971229809608e+01 
       1.019798930396e-05       2.455311522015e+01 
       1.283850788396e-05       3.058268149861e+01 
       1.616272382464e-05       3.809288920617e+01 
       2.034766374665e-05       4.744727788159e+01 
       2.561619096130e-05       5.909859575862e+01 
       3.224887375455e-05       7.361064136756e+01 
       4.059892667135e-05       9.168540486684e+01 
       5.111102047813e-05       1.141967484833e+02 
       6.434496250265e-05       1.422321096298e+02 
       8.100550841552e-05       1.771439574755e+02 
       1.019798930396e-04       2.206129299300e+02 
       1.283850788396e-04       2.747246106044e+02 
       1.616272382464e-04       3.420615475019e+02 
       2.034766374665e-04       4.258109472990e+02 
       2.561619096130e-04       5.298857862664e+02 
       3.224887375455e-04       6.590518103734e+02 
       4.059892667135e-04       8.190439671927e+02 
       5.111102047813e-04       1.016643339121e+03 
       6.434496250265e-04       1.259673593865e+03 
       8.100550841552e-04       1.556872844045e+03 
       1.019798930396e-03       1.917598726548e+03 
       1.283850788396e-03       2.351267605819e+03 
       1.616272382464e-03       2.866246186333e+03 
       2.034766374665e-03       3.467940400565e+03 
       2.561619096130e-03       4.156284886443e+03 
       3.224887375455e-03       4.922632510961e+03 
       4.059892667135e-03       5.746417748851e+03 
       5.111102047813e-03       6.591992918513e+03 
       6.434496250265e-03       7.406655360543e+03 
       8.100550841552e-03       8.111634352736e+03 
       1.019798930396e-02       8.639046375344e+03 
       1.283850788396e-02       8.891044215836e+03 
       1.616272382464e-02       8.781048618127e+03 
       2.034766374224e-02       8.249383204651e+03 
       2.561618268039e-02       7.303134049248e+03 
       3.224647724316e-02       6.068063278113e+03 
       4.044864194891e-02       4.818705519559e+03 
       4.879384730521e-02       3.949679475748e+03 
       5.483999038451e-02       3.513513118522e+03 
       5.955141287910e-02       3.241955638899e+03 
       6.363287552259e-02       3.033549233169e+03 
       6.737499965327e-02       2.853630655284e+03 
       7.092076254067e-02       2.687815312321e+03 
       7.435154197652e-02       2.529811961620e+03 
       7.771876426934e-02       2.377265156216e+03 
       8.105759104031e-02       2.229950122993e+03 
       8.439361265169e-02       2.088802830246e+03 
       8.774643941635e-02       1.955298088925e+03 
       9.113177151108e-02       1.831003708266e+03 
       9.456266179194e-02       1.717248699854e+03 
       9.805032245565e-02       1.614884879087e+03 
       1.016046601212e-01       1.524134305927e+03 
       1.052346419971e-01       1.444518227547e+03 
       1.089485529855e-01       1.374864109660e+03 
       1.127541800392e-01       1.313389897875e+03 
       1.166589465885e-01       1.257866213380e+03 
       1.206700118215e-01       1.205856021182e+03 
       1.247943446725e-01       1.155020046940e+03 
       1.290387792712e-01       1.103454453002e+03 
       1.334100566030e-01       1.050000302330e+03 
       1.379148558298e-01       9.944449449172e+02 
       1.425598178499e-01       9.375416641021e+02 
       1.473515631053e-01       8.808119676725e+02 
       1.522967052572e-01       8.261594491944e+02 
       1.574018620996e-01       7.753873239515e+02 
       1.626736649147e-01       7.297463634389e+02 
       1.681187673661e-01       6.896310099044e+02 
       1.737438549604e-01       6.545005017059e+02 
       1.795556560652e-01       6.230491393847e+02 
       1.855609554448e-01       5.935955668754e+02 
       1.917666112587e-01       5.645980894629e+02 
       1.981795764554e-01       5.351364082883e+02 
       2.048069254883e-01       5.051698105509e+02 
       2.116558872790e-01       4.754438957648e+02 
       2.187338853600e-01       4.470741751652e+02 
       2.260485861583e-01       4.210013001746e+02 
       2.336079564253e-01       3.975774309294e+02 
       2.414203309054e-01       3.764686493698e+02 
       2.494944914695e-01       3.568975403925e+02 
       2.578397591375e-01       3.380834887408e+02 
       2.664661006956e-01       3.196330439810e+02 
       2.753842520132e-01       3.016560364625e+02 
       2.846058606939e-01       2.845572751997e+02 
       2.941436514148e-01       2.686766041410e+02 
       3.040116182577e-01       2.540437431331e+02 
       3.142252495927e-01       2.404028716827e+02 
       3.248017927386e-01       2.274432415114e+02 
       3.357605678320e-01       2.150204798928e+02 
       3.471233432914e-01       2.031881054678e+02 
       3.589147892486e-01       1.920504200975e+02 
       3.711630307581e-01       1.816117293618e+02 
       3.839003301127e-01       1.717683383769e+02 
       3.971639381245e-01       1.624147808853e+02 
       4.109971692159e-01       1.535192143069e+02 
       4.254507768366e-01       1.450908266552e+02 
       4.405847376323e-01       1.371108642624e+02 
       4.564706006929e-01       1.295267222741e+02 
       4.731946316550e-01       1.222958050906e+02 
       4.908620967240e-01       1.153984213860e+02 
       5.096032173570e-01       1.088111289455e+02 
       5.295816341188e-01       1.024983741451e+02 
       5.510067450421e-01       9.642789252399e+01 
       5.741522187934e-01       9.057038590565e+01 
       5.993847116346e-01       8.488890390725e+01 
       6.272101653657e-01       7.934348982612e+01 
       6.583519002969e-01       7.388753758215e+01 
       6.938895390548e-01       6.846195157131e+01 
       7.355221412959e-01       6.299000631357e+01 
       7.861042568972e-01       5.736448150657e+01 
       8.508281929119e-01       5.142862435612e+01 
       9.400058426714e-01       4.494761075436e+01 
       1.075267862616e+00       3.764221571366e+01 
       1.294661683016e+00       2.964183102569e+01 
       1.618897380692e+00       2.232838359593e+01 
       2.037649097677e+00       1.664633371116e+01 
       2.565244809502e+00       1.229229567806e+01 
       3.229451873543e+00       8.935525036397e+00 
       4.065639029768e+00       6.361053302240e+00 
       5.118336289757e+00       4.418025682177e+00 
       6.443603621284e+00       2.986747639433e+00 
       8.112016342363e+00       1.963538427600e+00 
       1.021242351429e+01       1.256327896609e+00 
