# Matter power spectrum P(k) at redshift z=1.5
# for k=2.13409e-07 to 10.7071 h/Mpc,
# number of wavenumbers equal to 139
#    1:k (h/Mpc)              2:P (Mpc/h)^3        
       2.134094022924e-07       2.610668377639e-01 
       2.686665196617e-07       3.244604068370e-01 
       3.382311089004e-07       4.032475226720e-01 
       4.258077380540e-07       5.011661239420e-01 
       5.360601819748e-07       6.228618144534e-01 
       6.748597853390e-07       7.741082665258e-01 
       8.495981331613e-07       9.620811443505e-01 
       1.069580679650e-06       1.195698542032e+00 
       1.346522297575e-06       1.486044087963e+00 
       1.695171137965e-06       1.846892789428e+00 
       2.134094022924e-06       2.295364561807e+00 
       2.686665196617e-06       2.852736448041e+00 
       3.382311089004e-06       3.545452057237e+00 
       4.258077380540e-06       4.406376104779e+00 
       5.360601819748e-06       5.476353554095e+00 
       6.748597853390e-06       6.806147297824e+00 
       8.495981331613e-06       8.458846233700e+00 
       1.069580679650e-05       1.051285784999e+01 
       1.346522297575e-05       1.306562700980e+01 
       1.695171137965e-05       1.623825684340e+01 
       2.134094022924e-05       2.018124988716e+01 
       2.686665196617e-05       2.508163976685e+01 
       3.382311089004e-05       3.117184760636e+01 
       4.258077380540e-05       3.874067520825e+01 
       5.360601819748e-05       4.814694049187e+01 
       6.748597853390e-05       5.983637064207e+01 
       8.495981331613e-05       7.436249258469e+01 
       1.069580679650e-04       9.241239107865e+01 
       1.346522297575e-04       1.148383209787e+02 
       1.695171137965e-04       1.426962176361e+02 
       2.134094022924e-04       1.772920592399e+02 
       2.686665196617e-04       2.202366346555e+02 
       3.382311089004e-04       2.735082929824e+02 
       4.258077380540e-04       3.395213304469e+02 
       5.360601819748e-04       4.211945000396e+02 
       6.748597853390e-04       5.220099481133e+02 
       8.495981331613e-04       6.460491028180e+02 
       1.069580679650e-03       7.979897140636e+02 
       1.346522297575e-03       9.830385632446e+02 
       1.695171137965e-03       1.206729973312e+03 
       2.134094022924e-03       1.474460153943e+03 
       2.686665196617e-03       1.790692043543e+03 
       3.382311089004e-03       2.157800803611e+03 
       4.258077380540e-03       2.574452040947e+03 
       5.360601819748e-03       3.030530393757e+03 
       6.748597853390e-03       3.514622403945e+03 
       8.495981331613e-03       3.997235530826e+03 
       1.069580679650e-02       4.436267256194e+03 
       1.346522297575e-02       4.773427471442e+03 
       1.695171137952e-02       4.937122019497e+03 
       2.134093970207e-02       4.856810978326e+03 
       2.686635195122e-02       4.498264122472e+03 
       3.379034315993e-02       3.919471654976e+03 
       4.170379060308e-02       3.334755834240e+03 
       4.799680242418e-02       2.993457801369e+03 
       5.264365280337e-02       2.803120945794e+03 
       5.653714068790e-02       2.670680482544e+03 
       6.004296242502e-02       2.563189163837e+03 
       6.332893542463e-02       2.466279174039e+03 
       6.648586955029e-02       2.372641686162e+03 
       6.956908544360e-02       2.278429741623e+03 
       7.261535907089e-02       2.181869814776e+03 
       7.565085693240e-02       2.082609927568e+03 
       7.869525572583e-02       1.981332837540e+03 
       8.176405668868e-02       1.879460925797e+03 
       8.486996888620e-02       1.778885862347e+03 
       8.802377821697e-02       1.681702758335e+03 
       9.123491599224e-02       1.589951859695e+03 
       9.451184363533e-02       1.505380261836e+03 
       9.786232028371e-02       1.429239699949e+03 
       1.012935932221e-01       1.362133797764e+03 
       1.048125359099e-01       1.303925239785e+03 
       1.084257494643e-01       1.253711129474e+03 
       1.121396380592e-01       1.209877086194e+03 
       1.159604653312e-01       1.170243566188e+03 
       1.198943967303e-01       1.132315485825e+03 
       1.239475313567e-01       1.093632272780e+03 
       1.281259258982e-01       1.052183579946e+03 
       1.324356126743e-01       1.006813986582e+03 
       1.368826133814e-01       9.575068983315e+02 
       1.414729498626e-01       9.054374472978e+02 
       1.462126530503e-01       8.527348697491e+02 
       1.511077711102e-01       8.019832206968e+02 
       1.561643777467e-01       7.555820826709e+02 
       1.613885815797e-01       7.151381318419e+02 
       1.667865374780e-01       6.810477641923e+02 
       1.723644607135e-01       6.523796429777e+02 
       1.781286447897e-01       6.271100914291e+02 
       1.840854837890e-01       6.027037995098e+02 
       1.902415000812e-01       5.769314874223e+02 
       1.966033782382e-01       5.486679829485e+02 
       2.031780060169e-01       5.183142884233e+02 
       2.099725233076e-01       4.875798385132e+02 
       2.169943800068e-01       4.586703322777e+02 
       2.242514038773e-01       4.332616763820e+02 
       2.317518796144e-01       4.117571296811e+02 
       2.395046405619e-01       3.931727556412e+02 
       2.475191748385e-01       3.757107303702e+02 
       2.558057480706e-01       3.577645743855e+02 
       2.643755455089e-01       3.388124811482e+02 
       2.732408370829e-01       3.196117632414e+02 
       2.824151699747e-01       3.015313488664e+02 
       2.919135946529e-01       2.855119805727e+02 
       3.017529321060e-01       2.714305119769e+02 
       3.119520924163e-01       2.583177331320e+02 
       3.225324580434e-01       2.452243069035e+02 
       3.335183495699e-01       2.319909571230e+02 
       3.449375976916e-01       2.192221757982e+02 
       3.568222536333e-01       2.075301112209e+02 
       3.692094820540e-01       1.968795611524e+02 
       3.821426975751e-01       1.867243579556e+02 
       3.956730310214e-01       1.767034947886e+02 
       4.098612486458e-01       1.669965365669e+02 
       4.247803041339e-01       1.579113848748e+02 
       4.405187910952e-01       1.493769371404e+02 
       4.571857038725e-01       1.411084841542e+02 
       4.749171441272e-01       1.330744314334e+02 
       4.938859986702e-01       1.254087685956e+02 
       5.143162927323e-01       1.180406213622e+02 
       5.365051573053e-01       1.108413861247e+02 
       5.608576958701e-01       1.038334986490e+02 
       5.879447269594e-01       9.696160122177e+01 
       6.186033079099e-01       9.013654913339e+01 
       6.541223519200e-01       8.329767117768e+01 
       6.966098472794e-01       7.631661143303e+01 
       7.497781810101e-01       6.902990663538e+01 
       8.207552077432e-01       6.118310920809e+01 
       9.243331610604e-01       5.243310288280e+01 
       1.089937090183e+00       4.261456371863e+01 
       1.349252684678e+00       3.282847496424e+01 
       1.696982227732e+00       2.487100686278e+01 
       2.136349737574e+00       1.872040006291e+01 
       2.689504904748e+00       1.390786523769e+01 
       3.385886069707e+00       1.013328465720e+01 
       4.262578014594e+00       7.205360861739e+00 
       5.366267782327e+00       4.982972616356e+00 
       6.755730877664e+00       3.345271961702e+00 
       8.504961277134e+00       2.180468314391e+00 
       1.070711187811e+01       1.383254205492e+00 
