# Matter power spectrum P(k) at redshift z=0
# for k=2.29416e-07 to 11.5097 h/Mpc,
# number of wavenumbers equal to 139
#    1:k (h/Mpc)              2:P (Mpc/h)^3        
       2.294155176768e-07       1.048783033833e+00 
       2.888170250632e-07       1.302013996580e+00 
       3.635990922108e-07       1.616388129898e+00 
       4.577441368895e-07       2.006668585739e+00 
       5.762657260300e-07       2.491183110808e+00 
       7.254755664452e-07       3.092684725040e+00 
       9.133196262336e-07       3.839420212426e+00 
       1.149801286556e-06       4.766456599791e+00 
       1.447514058159e-06       5.917327914363e+00 
       1.822312231745e-06       7.346079550275e+00 
       2.294155176768e-06       9.119806241571e+00 
       2.888170250632e-06       1.132180281675e+01 
       3.635990922108e-06       1.405547567292e+01 
       4.577441368895e-06       1.744919861396e+01 
       5.762657260300e-06       2.166234099783e+01 
       7.254755664452e-06       2.689275112089e+01 
       9.133196262336e-06       3.338604593417e+01 
       1.149801286556e-05       4.144714271223e+01 
       1.447514058159e-05       5.145457296707e+01 
       1.822312231745e-05       6.387824833984e+01 
       2.294155176768e-05       7.930150796218e+01 
       2.888170250632e-05       9.844847318232e+01 
       3.635990922108e-05       1.222179756660e+02 
       4.577441368895e-05       1.517256156505e+02 
       5.762657260300e-05       1.883558538644e+02 
       7.254755664452e-05       2.338264432384e+02 
       9.133196262336e-05       2.902679526313e+02 
       1.149801286556e-04       3.603215855417e+02 
       1.447514058159e-04       4.472588622991e+02 
       1.822312231745e-04       5.551268314912e+02 
       2.294155176768e-04       6.889219710940e+02 
       2.888170250632e-04       8.547942918769e+02 
       3.635990922108e-04       1.060279661501e+03 
       4.577441368895e-04       1.314552492019e+03 
       5.762657260300e-04       1.628683030902e+03 
       7.254755664452e-04       2.015874547223e+03 
       9.133196262336e-04       2.491640372101e+03 
       1.149801286556e-03       3.073831271466e+03 
       1.447514058159e-03       3.782317915406e+03 
       1.822312231745e-03       4.638087082202e+03 
       2.294155176768e-03       5.661537516722e+03 
       2.888170250632e-03       6.869552965187e+03 
       3.635990922108e-03       8.271056571213e+03 
       4.577441368895e-03       9.860921908870e+03 
       5.762657260300e-03       1.156261918716e+04 
       7.254755664452e-03       1.339223383744e+04 
       9.133196262336e-03       1.521180194594e+04 
       1.149801286556e-02       1.686278922639e+04 
       1.447514058159e-02       1.812775309473e+04 
       1.822312231739e-02       1.874159588355e+04 
       2.294155144075e-02       1.844335100598e+04 
       2.888148808239e-02       1.710184376755e+04 
       3.633361985007e-02       1.491664096487e+04 
       4.499095208009e-02       1.265255838879e+04 
       5.207132758097e-02       1.129855485666e+04 
       5.724980569835e-02       1.056276766251e+04 
       6.155530300076e-02       1.006274081343e+04 
       6.541619520620e-02       9.663949378887e+03 
       6.902623546495e-02       9.308659062173e+03 
       7.248912865296e-02       8.967602061979e+03 
       7.586755710247e-02       8.625215746245e+03 
       7.920294387683e-02       8.274072080352e+03 
       8.252462275074e-02       7.912327469647e+03 
       8.585456577832e-02       7.542246791515e+03 
       8.921002479767e-02       7.169084348937e+03 
       9.260510348201e-02       6.800045907384e+03 
       9.605174148986e-02       6.443250822553e+03 
       9.956035653918e-02       6.106708611235e+03 
       1.031402778053e-01       5.797369423130e+03 
       1.068000468091e-01       5.520315553420e+03 
       1.105476311966e-01       5.278148459599e+03 
       1.143905794909e-01       5.070605144396e+03 
       1.183361347626e-01       4.894427191135e+03 
       1.223913190263e-01       4.743514871830e+03 
       1.265629963517e-01       4.609419955915e+03 
       1.308579202402e-01       4.482247603422e+03 
       1.352827692384e-01       4.351993117754e+03 
       1.398441737146e-01       4.210222408445e+03 
       1.445487360346e-01       4.051808143717e+03 
       1.494030459111e-01       3.876245769330e+03 
       1.544136923938e-01       3.688027049914e+03 
       1.595872737672e-01       3.495749158131e+03 
       1.649304064921e-01       3.310056331222e+03 
       1.704497342435e-01       3.140955566681e+03 
       1.761519380468e-01       2.995268372653e+03 
       1.820437484791e-01       2.874887119913e+03 
       1.881319608863e-01       2.776237393876e+03 
       1.944234545483e-01       2.691126682422e+03 
       2.009252167178e-01       2.609004728053e+03 
       2.076443724545e-01       2.520327234523e+03 
       2.145882211783e-01       2.420042310048e+03 
       2.217642808842e-01       2.309604166358e+03 
       2.291803409934e-01       2.196188890676e+03 
       2.368445248878e-01       2.089220345892e+03 
       2.447653632771e-01       1.995937104167e+03 
       2.529518797174e-01       1.918215289426e+03 
       2.614136898390e-01       1.852053305430e+03 
       2.701611161793e-01       1.789911107104e+03 
       2.792053209813e-01       1.724921779472e+03 
       2.885584599403e-01       1.654770121279e+03 
       2.982338607147e-01       1.582632050397e+03 
       3.082462311150e-01       1.514341697852e+03 
       3.186119033409e-01       1.453941465263e+03 
       3.293491225632e-01       1.401000371410e+03 
       3.404783907166e-01       1.351528428997e+03 
       3.520228798180e-01       1.301581860409e+03 
       3.640089338119e-01       1.250486286188e+03 
       3.764666843750e-01       1.200735391335e+03 
       3.894308150701e-01       1.154856938157e+03 
       4.029415208855e-01       1.112747293212e+03 
       4.170457283544e-01       1.072245567131e+03 
       4.317986679470e-01       1.031919971314e+03 
       4.472659298522e-01       9.924608898360e+02 
       4.635261941057e-01       9.550552377875e+02 
       4.806749189083e-01       9.194410169468e+02 
       4.988294187532e-01       8.845460542937e+02 
       5.181360055840e-01       8.502176309748e+02 
       5.387802734551e-01       8.168978883069e+02 
       5.610023175185e-01       7.843031201781e+02 
       5.851199660249e-01       7.519230172276e+02 
       6.115655434173e-01       7.197241332387e+02 
       6.409465390106e-01       6.874008097053e+02 
       6.741507866402e-01       6.544661004658e+02 
       7.125397295017e-01       6.204251865661e+02 
       7.583286004077e-01       5.844087132758e+02 
       8.153944431163e-01       5.451154237858e+02 
       8.911301908673e-01       5.003426307050e+02 
       1.000813030937e+00       4.463936706325e+02 
       1.175266131229e+00       3.784971042907e+02 
       1.450849610453e+00       2.989738615847e+02 
       1.824200353725e+00       2.235615612952e+02 
       2.296493259283e+00       1.601485419936e+02 
       2.891113596196e+00       1.102157379783e+02 
       3.639696374579e+00       7.329170454163e+01 
       4.582106257173e+00       4.741073399428e+01 
       5.768530006696e+00       3.001967180462e+01 
       7.262149014127e+00       1.870291851544e+01 
       9.142503938121e+00       1.151293638137e+01 
       1.150973053513e+01       7.024440959345e+00 
