# Matter power spectrum P(k) at redshift z=0
# for k=1.61401e-07 to 10.1956 h/Mpc,
# number of wavenumbers equal to 140
#    1:k (h/Mpc)              2:P (Mpc/h)^3        
       1.614014321691e-07       2.112765345901e+00 
       2.031923644577e-07       2.643998863500e+00 
       2.558040310983e-07       3.308805682939e+00 
       3.220381951890e-07       4.140771459062e+00 
       4.054220674918e-07       5.181926615999e+00 
       5.103961432675e-07       6.484869695884e+00 
       6.425506748412e-07       8.115424597393e+00 
       8.089233729231e-07       1.015596594229e+01 
       1.018374190367e-06       1.270958055672e+01 
       1.282057146969e-06       1.590527528459e+01 
       1.614014321691e-06       1.990449418982e+01 
       2.031923644577e-06       2.490927432561e+01 
       2.558040310983e-06       3.117245195017e+01 
       3.220381951890e-06       3.901043451315e+01 
       4.054220674918e-06       4.881918309047e+01 
       5.103961432675e-06       6.109421157394e+01 
       6.425506748412e-06       7.645561074735e+01 
       8.089233729231e-06       9.567935705916e+01 
       1.018374190367e-05       1.197364791079e+02 
       1.282057146969e-05       1.498420432342e+02 
       1.614014321691e-05       1.875163987717e+02 
       2.031923644577e-05       2.346617092411e+02 
       2.558040310983e-05       2.936575016285e+02 
       3.220381951890e-05       3.674797952776e+02 
       4.054220674918e-05       4.598493040159e+02 
       5.103961432675e-05       5.754151640005e+02 
       6.425506748412e-05       7.199814364328e+02 
       8.089233729231e-05       9.007838558765e+02 
       1.018374190367e-04       1.126823112124e+03 
       1.282057146969e-04       1.409256809788e+03 
       1.614014321691e-04       1.761842469446e+03 
       2.031923644577e-04       2.201404539332e+03 
       2.558040310983e-04       2.748265129001e+03 
       3.220381951890e-04       3.426531039677e+03 
       4.054220674918e-04       4.264082468224e+03 
       5.103961432675e-04       5.292091886643e+03 
       6.425506748412e-04       6.543902149385e+03 
       8.089233729231e-04       8.052894659034e+03 
       1.018374190367e-03       9.848384757782e+03 
       1.282057146969e-03       1.194870467868e+04 
       1.614014321691e-03       1.435194771816e+04 
       2.031923644577e-03       1.702438675393e+04 
       2.558040310983e-03       1.988873455559e+04 
       3.220381951890e-03       2.281525891606e+04 
       4.054220674918e-03       2.561658497263e+04 
       5.103961432675e-03       2.805313201751e+04 
       6.425506748412e-03       2.982055435611e+04 
       8.089233729231e-03       3.067881228598e+04 
       1.018374190367e-02       3.033732380439e+04 
       1.282057146969e-02       2.858922340576e+04 
       1.614014321660e-02       2.536471965344e+04 
       2.031923538855e-02       2.086624728651e+04 
       2.557990736781e-02       1.573953454484e+04 
       3.215758644383e-02       1.109534510697e+04 
       3.947821473438e-02       8.158382537306e+03 
       4.510219928157e-02       6.975757572704e+03 
       4.931587250745e-02       6.414533812082e+03 
       5.288242331548e-02       6.033738797771e+03 
       5.611136150125e-02       5.705308494968e+03 
       5.914758501010e-02       5.382457732213e+03 
       6.207066648113e-02       5.048194293963e+03 
       6.492959917388e-02       4.699785717146e+03 
       6.775721733175e-02       4.342323331706e+03 
       7.057703462133e-02       3.985122184627e+03 
       7.340682827903e-02       3.639197152249e+03 
       7.626066753161e-02       3.315322046652e+03 
       7.915013313811e-02       3.022576361202e+03 
       8.208508719280e-02       2.767386323285e+03 
       8.507417877760e-02       2.553043882448e+03 
       8.812518719727e-02       2.379623760524e+03 
       9.124526137808e-02       2.244172842217e+03 
       9.444109060252e-02       2.141055256224e+03 
       9.771902847312e-02       2.062407503545e+03 
       1.010851841747e-01       1.998759221049e+03 
       1.045454903410e-01       1.939940161195e+03 
       1.081057538532e-01       1.876353921561e+03 
       1.117716939889e-01       1.800525622308e+03 
       1.155489711014e-01       1.708584029755e+03 
       1.194432081847e-01       1.601160583694e+03 
       1.234600071397e-01       1.483239534162e+03 
       1.276049611887e-01       1.362829286453e+03 
       1.318836646485e-01       1.248808818692e+03 
       1.363017211127e-01       1.148650980517e+03 
       1.408647509914e-01       1.066715605550e+03 
       1.455783992929e-01       1.003476111812e+03 
       1.504483444907e-01       9.556820488457e+02 
       1.554803092952e-01       9.173222531141e+02 
       1.606800741310e-01       8.812859894915e+02 
       1.660534941123e-01       8.415069305302e+02 
       1.716065203006e-01       7.949732121082e+02 
       1.773452260258e-01       7.426544465320e+02 
       1.832758390583e-01       6.887053123445e+02 
       1.894047804346e-01       6.382715856769e+02 
       1.957387107739e-01       5.950780217703e+02 
       2.022845849867e-01       5.599851434177e+02 
       2.090497163744e-01       5.310204984841e+02 
       2.160418512707e-01       5.046926828799e+02 
       2.232692555945e-01       4.779288069656e+02 
       2.307408149869e-01       4.496294506637e+02 
       2.384661506229e-01       4.208966884127e+02 
       2.464557533460e-01       3.938349229155e+02 
       2.547211395178e-01       3.698988217944e+02 
       2.632750329584e-01       3.490093330302e+02 
       2.721315786525e-01       3.299261392318e+02 
       2.813065956228e-01       3.113997887768e+02 
       2.908178786704e-01       2.930961301140e+02 
       3.006855617826e-01       2.755535907842e+02 
       3.109325602174e-01       2.593796978335e+02 
       3.215851140758e-01       2.445970747438e+02 
       3.326734642679e-01       2.307462557272e+02 
       3.442327032414e-01       2.174607863979e+02 
       3.563038593505e-01       2.047717998419e+02 
       3.689352979169e-01       1.928567182816e+02 
       3.821845581294e-01       1.816941457373e+02 
       3.961207999307e-01       1.711033258020e+02 
       4.108281207988e-01       1.609938348464e+02 
       4.264101394145e-01       1.513875884378e+02 
       4.429964685519e-01       1.422573221510e+02 
       4.607520816643e-01       1.335190009058e+02 
       4.798912487251e-01       1.251272150975e+02 
       5.006989429498e-01       1.170461523412e+02 
       5.235649627138e-01       1.092107994968e+02 
       5.490407234144e-01       1.015600051629e+02 
       5.779387095361e-01       9.401791134136e+01 
       6.115173900483e-01       8.648843794348e+01 
       6.518499965110e-01       7.884013716310e+01 
       7.026200183535e-01       7.088914335260e+01 
       7.709677629089e-01       6.236612511173e+01 
       8.717849492632e-01       5.292375576738e+01 
       1.033969503038e+00       4.250106863807e+01 
       1.284382673753e+00       3.250794996744e+01 
       1.615908185410e+00       2.464971889889e+01 
       2.034294805233e+00       1.868882629755e+01 
       2.561025395265e+00       1.408986856697e+01 
       3.224139950340e+00       1.050468126363e+01 
       4.058951714664e+00       7.708329869192e+00 
       5.109917458836e+00       5.545784385252e+00 
       6.433004941100e+00       3.900343389270e+00 
       8.098673394548e+00       2.676371117231e+00 
       1.019562573822e+01       1.790932625453e+00 
