# Matter power spectrum P(k) at redshift z=1
# for k=1.80241e-07 to 11.3874 h/Mpc,
# number of wavenumbers equal to 140
#    1:k (h/Mpc)              2:P (Mpc/h)^3        
       1.802406768921e-07       9.953449687833e-01 
       2.269095683785e-07       1.238065510231e+00 
       2.856622218109e-07       1.539974838046e+00 
       3.596274302273e-07       1.915506474682e+00 
       4.527441106914e-07       2.382613638252e+00 
       5.699710659895e-07       2.963627540541e+00 
       7.175510589616e-07       3.686324984027e+00 
       9.033432623866e-07       4.585256298452e+00 
       1.137241788592e-06       5.703397098764e+00 
       1.431702587012e-06       7.094202832384e+00 
       1.802406768921e-06       8.824164326303e+00 
       2.269095683785e-06       1.097598650592e+01 
       2.856622218109e-06       1.365254222947e+01 
       3.596274302273e-06       1.698179022279e+01 
       4.527441106914e-06       2.112289214966e+01 
       5.699710659895e-06       2.627382112261e+01 
       7.175510589616e-06       3.268082508581e+01 
       9.033432623866e-06       4.065019693056e+01 
       1.137241788592e-05       5.056291290493e+01 
       1.431702587012e-05       6.289283687511e+01 
       1.802406768921e-05       7.822935635887e+01 
       2.269095683785e-05       9.730552375403e+01 
       2.856622218109e-05       1.210330310011e+02 
       3.596274302273e-05       1.505456559415e+02 
       4.527441106914e-05       1.872531909926e+02 
       5.699710659895e-05       2.329083018944e+02 
       7.175510589616e-05       2.896892568056e+02 
       9.033432623866e-05       3.603019808313e+02 
       1.137241788592e-04       4.481053420227e+02 
       1.431702587012e-04       5.572637816608e+02 
       1.802406768921e-04       6.929310101317e+02 
       2.269095683785e-04       8.614668739089e+02 
       2.856622218109e-04       1.070685688307e+03 
       3.596274302273e-04       1.330127158633e+03 
       4.527441106914e-04       1.651329930937e+03 
       5.699710659895e-04       2.048074595298e+03 
       7.175510589616e-04       2.536551538707e+03 
       9.033432623866e-04       3.135391282603e+03 
       1.137241788592e-03       3.865415160183e+03 
       1.431702587012e-03       4.748772577293e+03 
       1.802406768921e-03       5.807082823402e+03 
       2.269095683785e-03       7.058396609496e+03 
       2.856622218109e-03       8.512567211489e+03 
       3.596274302273e-03       1.016472077953e+04 
       4.527441106914e-03       1.195819560748e+04 
       5.699710659895e-03       1.387269203513e+04 
       7.175510589617e-03       1.577711816481e+04 
       9.033432623866e-03       1.749913186923e+04 
       1.137241788592e-02       1.879983589316e+04 
       1.431702586928e-02       1.938878996279e+04 
       1.802406551408e-02       1.899160050153e+04 
       2.269013901056e-02       1.750674313742e+04 
       2.850256806132e-02       1.524186987943e+04 
       3.473770380922e-02       1.316620763338e+04 
       3.937535556422e-02       1.202465682905e+04 
       4.291236300852e-02       1.134634392013e+04 
       4.593925226532e-02       1.085276183907e+04 
       4.869595646371e-02       1.044081167409e+04 
       5.129739384670e-02       1.006295619828e+04 
       5.380772718304e-02       9.694252241722e+03 
       5.626693897412e-02       9.321458676589e+03 
       5.870207211998e-02       8.938644196347e+03 
       6.113263665234e-02       8.545038327796e+03 
       6.357347417622e-02       8.143693739567e+03 
       6.603639264485e-02       7.740415739143e+03 
       6.853115584121e-02       7.342747442269e+03 
       7.106611137513e-02       6.958952744893e+03 
       7.364860504373e-02       6.597016293545e+03 
       7.628526314309e-02       6.263716899566e+03 
       7.898218997731e-02       5.963837278447e+03 
       8.174510906845e-02       5.699567371241e+03 
       8.457946588510e-02       5.470144531466e+03 
       8.749050358236e-02       5.271768495704e+03 
       9.048331938254e-02       5.097836150567e+03 
       9.356290680047e-02       4.939551844935e+03 
       9.673418736221e-02       4.786955120469e+03 
       1.000020344500e-01       4.630347090637e+03 
       1.033712912353e-01       4.461964782052e+03 
       1.068467842165e-01       4.277585680309e+03 
       1.104333335775e-01       4.077612026502e+03 
       1.141357613910e-01       3.867197893916e+03 
       1.179588985566e-01       3.655194823254e+03 
       1.219075912847e-01       3.452065133741e+03 
       1.259867078807e-01       3.267278484955e+03 
       1.302011465556e-01       3.106894126172e+03 
       1.345558449649e-01       2.971964642006e+03 
       1.390557921661e-01       2.858182355356e+03 
       1.437060436761e-01       2.756966513212e+03 
       1.485117403044e-01       2.657942234566e+03 
       1.534781314345e-01       2.552332963116e+03 
       1.586106034348e-01       2.436163826378e+03 
       1.639147138918e-01       2.311786594921e+03 
       1.693962323939e-01       2.186700244127e+03 
       1.750611886510e-01       2.069998617393e+03 
       1.809159288237e-01       1.968142164483e+03 
       1.869671810747e-01       1.882107729990e+03 
       1.932221315522e-01       1.807231694816e+03 
       1.996885122842e-01       1.735861833016e+03 
       2.063747028409e-01       1.661639025386e+03 
       2.132898481162e-01       1.583050455438e+03 
       2.204439952493e-01       1.503837814444e+03 
       2.278482535771e-01       1.429833262801e+03 
       2.355149826786e-01       1.364570506365e+03 
       2.434580151043e-01       1.306955653504e+03 
       2.516929224474e-01       1.252624772925e+03 
       2.602373361831e-01       1.197798637287e+03 
       2.691113384813e-01       1.142313347366e+03 
       2.783379434039e-01       1.089023863750e+03 
       2.879436961842e-01       1.040341476365e+03 
       2.979594286172e-01       9.957112205909e+02 
       3.084212235036e-01       9.526682109591e+02 
       3.193716629793e-01       9.099357341727e+02 
       3.308614683239e-01       8.685565839502e+02 
       3.429516889070e-01       8.297573082721e+02 
       3.557166762210e-01       7.929733569975e+02 
       3.692482045226e-01       7.569932833303e+02 
       3.836613067926e-01       7.218802255620e+02 
       3.991027475374e-01       6.881720831350e+02 
       4.157636764868e-01       6.553973252985e+02 
       4.338991506589e-01       6.230575024938e+02 
       4.538594103308e-01       5.912544480598e+02 
       4.761422446480e-01       5.596024314558e+02 
       5.014853378284e-01       5.276868060097e+02 
       5.310393953907e-01       4.950653936996e+02 
       5.667167113156e-01       4.609584796282e+02 
       6.119506686650e-01       4.242253555756e+02 
       6.734707959947e-01       3.830128063109e+02 
       7.653690198619e-01       3.345627287854e+02 
       9.139825917784e-01       2.770767754565e+02 
       1.139189172071e+00       2.174767570803e+02 
       1.433594792348e+00       1.658365299378e+02 
       1.804783113649e+00       1.230666494675e+02 
       2.272087314014e+00       8.838993310679e+01 
       2.860388457425e+00       6.126407521850e+01 
       3.601015716655e+00       4.101669579338e+01 
       4.533410193967e+00       2.663261202509e+01 
       5.707225295271e+00       1.685825482391e+01 
       7.184970955052e+00       1.045597393388e+01 
       9.045342518318e+00       6.383022769195e+00 
       1.138741155469e+01       3.849735217869e+00 
