# Matter power spectrum P(k) at redshift z=2.5
# for k=1.96293e-07 to 12.3998 h/Mpc,
# number of wavenumbers equal to 140
#    1:k (h/Mpc)              2:P (Mpc/h)^3        
       1.962927550905e-07       1.518749660222e-01 
       2.471179375346e-07       1.901149166738e-01 
       3.111030512724e-07       2.379831414985e-01 
       3.916555369336e-07       2.979039026312e-01 
       4.930651081155e-07       3.729118566716e-01 
       6.207321942757e-07       4.668057433485e-01 
       7.814555332924e-07       5.843407705920e-01 
       9.837942290490e-07       7.314694392668e-01 
       1.238523554926e-06       9.156430037808e-01 
       1.559208776402e-06       1.146188836149e+00 
       1.962927550905e-06       1.434782802961e+00 
       2.471179375346e-06       1.796040578119e+00 
       3.111030512724e-06       2.248257835734e+00 
       3.916555369336e-06       2.814336804058e+00 
       4.930651081155e-06       3.522946093726e+00 
       6.207321942757e-06       4.409972521566e+00 
       7.814555332924e-06       5.520338410895e+00 
       9.837942290490e-06       6.910276329271e+00 
       1.238523554926e-05       8.650176293448e+00 
       1.559208776402e-05       1.082814932607e+01 
       1.962927550905e-05       1.355448719343e+01 
       2.471179375346e-05       1.696724290970e+01 
       3.111030512724e-05       2.123921212272e+01 
       3.916555369336e-05       2.658666396037e+01 
       4.930651081156e-05       3.328025359641e+01 
       6.207321942757e-05       4.165864968423e+01 
       7.814555332924e-05       5.214552801685e+01 
       9.837942290490e-05       6.527071576390e+01 
       1.238523554926e-04       8.169640677426e+01 
       1.559208776402e-04       1.022494814223e+02 
       1.962927550905e-04       1.279609961964e+02 
       2.471179375346e-04       1.601137462058e+02 
       3.111030512724e-04       2.002982461607e+02 
       3.916555369336e-04       2.504762045876e+02 
       4.930651081156e-04       3.130481932211e+02 
       6.207321942757e-04       3.909185519015e+02 
       7.814555332924e-04       4.875462932667e+02 
       9.837942290490e-04       6.069677806727e+02 
       1.238523554926e-03       7.537743913248e+02 
       1.559208776402e-03       9.330088773959e+02 
       1.962927550905e-03       1.149878600249e+03 
       2.471179375346e-03       1.409160452233e+03 
       3.111030512724e-03       1.714291191272e+03 
       3.916555369336e-03       2.066028848785e+03 
       4.930651081156e-03       2.458738253467e+03 
       6.207321942757e-03       2.883943115285e+03 
       7.814555332924e-03       3.318804933004e+03 
       9.837942290490e-03       3.727557520323e+03 
       1.238523554926e-02       4.057457727523e+03 
       1.559208776370e-02       4.239977414640e+03 
       1.962927444378e-02       4.203648406798e+03 
       2.471129970236e-02       3.909296010343e+03 
       3.106464213886e-02       3.409236216128e+03 
       3.812382379422e-02       2.915947375810e+03 
       4.353717748109e-02       2.641329674481e+03 
       4.759654384534e-02       2.488680180640e+03 
       5.103441903265e-02       2.383948732352e+03 
       5.414780437644e-02       2.300036821404e+03 
       5.707590025996e-02       2.224492840586e+03 
       5.989521407237e-02       2.150635738683e+03 
       6.265288013002e-02       2.074725867213e+03 
       6.538050135876e-02       1.994873073421e+03 
       6.810071797653e-02       1.910534668663e+03 
       7.083065210998e-02       1.822219827243e+03 
       7.358385806642e-02       1.731254855007e+03 
       7.637149528248e-02       1.639550052418e+03 
       7.920306891747e-02       1.549349637799e+03 
       8.208691642796e-02       1.462970389018e+03 
       8.503053791377e-02       1.382543537232e+03 
       8.804082656211e-02       1.309781206485e+03 
       9.112423301615e-02       1.245784728198e+03 
       9.428688472859e-02       1.190908083029e+03 
       9.753467383612e-02       1.144684770484e+03 
       1.008733225103e-01       1.105827284348e+03 
       1.043084318742e-01       1.072314634934e+03 
       1.078455187389e-01       1.041587262898e+03 
       1.114900432205e-01       1.010865960838e+03 
       1.152474295070e-01       9.775848056432e+02 
       1.191230815229e-01       9.398809991193e+02 
       1.231223948855e-01       8.970303616900e+02 
       1.272507663209e-01       8.496846396358e+02 
       1.315136015500e-01       7.997928881118e+02 
       1.359163225614e-01       7.501747262614e+02 
       1.404643751217e-01       7.038364498070e+02 
       1.451632373385e-01       6.632141190443e+02 
       1.500184300654e-01       6.295485810614e+02 
       1.550355299213e-01       6.025473059118e+02 
       1.602201856904e-01       5.804228334291e+02 
       1.655781388557e-01       5.603498281976e+02 
       1.711152490237e-01       5.393133875551e+02 
       1.768375249974e-01       5.151597828377e+02 
       1.827511622718e-01       4.874483569999e+02 
       1.888625877627e-01       4.576390332936e+02 
       1.951785126351e-01       4.284146717262e+02 
       2.017059941979e-01       4.024228686817e+02 
       2.084525079758e-01       3.810599713107e+02 
       2.154260312800e-01       3.638743338628e+02 
       2.226351398950e-01       3.488600123176e+02 
       2.300891199003e-01       3.335559325678e+02 
       2.377980971852e-01       3.164533931967e+02 
       2.457731879350e-01       2.978580942074e+02 
       2.540266743153e-01       2.795326000236e+02 
       2.625722108396e-01       2.633277165668e+02 
       2.714250685694e-01       2.498370728098e+02 
       2.806024265233e-01       2.380737638803e+02 
       2.901237226613e-01       2.263931706533e+02 
       3.000110808846e-01       2.139282165876e+02 
       3.102898360962e-01       2.012496981182e+02 
       3.209891871922e-01       1.895835974195e+02 
       3.321430189400e-01       1.794335637034e+02 
       3.437909496581e-01       1.701256120822e+02 
       3.559796849911e-01       1.607434164371e+02 
       3.687647929796e-01       1.512612598757e+02 
       3.822130688312e-01       1.423661692105e+02 
       3.964057407545e-01       1.342969522623e+02 
       4.114429008631e-01       1.265390556570e+02 
       4.274497632276e-01       1.187953196984e+02 
       4.445857210372e-01       1.113955769376e+02 
       4.630578245550e-01       1.044276584309e+02 
       4.831414888849e-01       9.756878413086e+01 
       5.052135099309e-01       9.085988587680e+01 
       5.298070314554e-01       8.435272741650e+01 
       5.577078345122e-01       7.786193578239e+01 
       5.901334445009e-01       7.139548673516e+01 
       6.290904917866e-01       6.480163819478e+01 
       6.781459609214e-01       5.795108500319e+01 
       7.442181096996e-01       5.061661983591e+01 
       8.417391098258e-01       4.253307156563e+01 
       9.986697467562e-01       3.372025321731e+01 
       1.240760538948e+00       2.544920598852e+01 
       1.561049740986e+00       1.910437302842e+01 
       1.965232975080e+00       1.438608122037e+01 
       2.474081704605e+00       1.078880470614e+01 
       3.114684328774e+00       7.997899028879e+00 
       3.921155251211e+00       5.823154268548e+00 
       4.936441989340e+00       4.142988939373e+00 
       6.214612264227e+00       2.869759319540e+00 
       7.823733303884e+00       1.930964265761e+00 
       9.849496671359e+00       1.261497471667e+00 
       1.239978165296e+01       8.015434782309e-01 
