# Matter power spectrum P(k) at redshift z=1
# for k=1.53718e-07 to 12.2254 h/Mpc,
# number of wavenumbers equal to 141
#    1:k (h/Mpc)              2:P (Mpc/h)^3        
       1.537177961102e-07       1.242272280605e+00 
       1.935192397681e-07       1.549697005272e+00 
       2.436262886152e-07       1.933200026186e+00 
       3.067073257187e-07       2.411608412389e+00 
       3.861216463308e-07       3.008408358792e+00 
       4.860983526096e-07       3.752898175395e+00 
       6.119615687315e-07       4.681626605245e+00 
       7.704139699175e-07       5.840187074225e+00 
       9.698937243304e-07       7.285455954218e+00 
       1.221023856299e-06       9.088384709333e+00 
       1.537177961102e-06       1.133748296636e+01 
       1.935192397681e-06       1.414316345979e+01 
       2.436262886152e-06       1.764316205336e+01 
       3.067073257187e-06       2.200929873171e+01 
       3.861216463308e-06       2.745591107556e+01 
       4.860983526096e-06       3.425037350359e+01 
       6.119615687315e-06       4.272621719653e+01 
       7.704139699175e-06       5.329949180920e+01 
       9.698937243304e-06       6.648916638541e+01 
       1.221023856299e-05       8.294255944021e+01 
       1.537177961102e-05       1.034670237735e+02 
       1.935192397681e-05       1.290693963844e+02 
       2.436262886152e-05       1.610050610622e+02 
       3.067073257187e-05       2.008388563852e+02 
       3.861216463308e-05       2.505204725968e+02 
       4.860983526096e-05       3.124773567199e+02 
       6.119615687315e-05       3.897283485481e+02 
       7.704139699175e-05       4.860210118453e+02 
       9.698937243304e-05       6.059943326448e+02 
       1.221023856299e-04       7.553650500006e+02 
       1.537177961102e-04       9.411284659764e+02 
       1.935192397681e-04       1.171750160600e+03 
       2.436262886152e-04       1.457299907057e+03 
       3.067073257187e-04       1.809441569398e+03 
       3.861216463308e-04       2.241151611022e+03 
       4.860983526096e-04       2.766027491324e+03 
       6.119615687315e-04       3.397118025000e+03 
       7.704139699175e-04       4.145313957161e+03 
       9.698937243304e-04       5.017104932857e+03 
       1.221023856299e-03       6.010820780852e+03 
       1.537177961102e-03       7.111365154547e+03 
       1.935192397681e-03       8.285484594213e+03 
       2.436262886152e-03       9.478242605035e+03 
       3.067073257187e-03       1.061285808227e+04 
       3.861216463308e-03       1.159382802321e+04 
       4.860983526096e-03       1.231636215494e+04 
       6.119615687315e-03       1.267961216076e+04 
       7.704139699175e-03       1.260109224684e+04 
       9.698937243304e-03       1.202876800459e+04 
       1.221023856299e-02       1.095055794724e+04 
       1.537177961102e-02       9.406579377225e+03 
       1.935192394699e-02       7.513994238407e+03 
       2.436259445102e-02       5.502398220970e+03 
       3.066404760674e-02       3.712597319612e+03 
       3.831257681275e-02       2.490309577552e+03 
       4.537334278240e-02       1.947578677181e+03 
       5.042623191699e-02       1.731386614581e+03 
       5.449000525503e-02       1.598966771678e+03 
       5.807070281882e-02       1.489149255378e+03 
       6.138505654662e-02       1.383766138083e+03 
       6.454402529400e-02       1.277423513940e+03 
       6.761258033156e-02       1.169830228623e+03 
       7.063264849928e-02       1.063003067561e+03 
       7.363336792468e-02       9.598862704106e+02 
       7.663622915300e-02       8.635151833524e+02 
       7.965788626643e-02       7.764762470399e+02 
       8.271180148672e-02       7.005858753871e+02 
       8.580926060567e-02       6.367488601088e+02 
       8.896002800035e-02       5.849549736341e+02 
       9.217278464533e-02       5.443637477907e+02 
       9.545542986103e-02       5.134312527429e+02 
       9.881529435084e-02       4.900531579433e+02 
       1.022592936370e-01       4.717292761384e+02 
       1.057940403259e-01       4.557786205136e+02 
       1.094259272306e-01       4.396318278001e+02 
       1.131611894199e-01       4.211916485352e+02 
       1.170059507595e-01       3.991933877660e+02 
       1.209662588906e-01       3.734494901496e+02 
       1.250481115262e-01       3.448634313581e+02 
       1.292574762440e-01       3.151657261347e+02 
       1.336003054822e-01       2.864331272991e+02 
       1.380825481351e-01       2.605432002745e+02 
       1.427101589359e-01       2.387334380064e+02 
       1.474891066836e-01       2.213718103216e+02 
       1.524253822830e-01       2.079556159127e+02 
       1.575250075126e-01       1.973025230989e+02 
       1.627940454035e-01       1.878928292576e+02 
       1.682386130889e-01       1.783121428363e+02 
       1.738648979721e-01       1.676849997347e+02 
       1.796791780497e-01       1.559258202859e+02 
       1.856878472220e-01       1.436665022794e+02 
       1.918974464249e-01       1.318807064263e+02 
       1.983147014254e-01       1.214016541126e+02 
       2.049465681522e-01       1.125759162614e+02 
       2.118002864829e-01       1.051914417091e+02 
       2.188834434942e-01       9.867020337756e+01 
       2.262040473139e-01       9.240743075930e+01 
       2.337706129104e-01       8.607803141356e+01 
       2.415922614310e-01       7.974046824105e+01 
       2.496788350826e-01       7.369169834521e+01 
       2.580410300664e-01       6.820164357054e+01 
       2.666905507662e-01       6.332790714082e+01 
       2.756402893084e-01       5.892205392244e+01 
       2.849045358177e-01       5.478219381132e+01 
       2.944992262951e-01       5.080680433302e+01 
       3.044422371759e-01       4.702693543773e+01 
       3.147537384754e-01       4.351762777425e+01 
       3.254566212941e-01       4.029854518336e+01 
       3.365770207359e-01       3.731995083312e+01 
       3.481449626164e-01       3.452298267737e+01 
       3.601951726433e-01       3.188927498890e+01 
       3.727681014566e-01       2.942886233478e+01 
       3.859112402861e-01       2.714072885545e+01 
       3.996808335859e-01       2.500362112190e+01 
       4.141441426765e-01       2.299779123798e+01 
       4.293824879299e-01       2.111611143699e+01 
       4.454954130893e-01       1.935290182465e+01 
       4.626065034856e-01       1.769704952390e+01 
       4.808717041403e-01       1.613845772967e+01 
       5.004915261145e-01       1.466802427901e+01 
       5.217295011583e-01       1.327876320752e+01 
       5.449410605734e-01       1.196085594133e+01 
       5.706205742292e-01       1.070530818686e+01 
       5.994816560853e-01       9.502268717679e+00 
       6.326020708025e-01       8.341052023817e+00 
       6.717028171258e-01       7.208174523736e+00 
       7.197275164877e-01       6.088292673627e+00 
       7.821442400628e-01       4.962937619260e+00 
       8.700268569500e-01       3.815393968572e+00 
       1.006442996413e+00       2.656048173969e+00 
       1.226752348619e+00       1.616281530051e+00 
       1.539194796487e+00       9.093347873088e-01 
       1.937594033642e+00       5.044098898014e-01 
       2.439285621681e+00       2.782645227231e-01 
       3.070878655141e+00       1.527561059884e-01 
       3.866007175493e+00       8.347931142116e-02 
       4.867014675406e+00       4.543053600633e-02 
       6.127208454444e+00       2.462846078637e-02 
       7.713698426660e+00       1.330333174243e-02 
       9.710970968239e+00       7.161661388981e-03 
       1.222538812511e+01       3.843023403617e-03 
