# Matter power spectrum P(k) at redshift z=0
# for k=2.33412e-07 to 11.7139 h/Mpc,
# number of wavenumbers equal to 139
#    1:k (h/Mpc)              2:P (Mpc/h)^3        
       2.334122392182e-07       9.795774719114e-01 
       2.938485993756e-07       1.216602735397e+00 
       3.699334689741e-07       1.510980252022e+00 
       4.657186447646e-07       1.876587364801e+00 
       5.863050366405e-07       2.330659272944e+00 
       7.381143096896e-07       2.894601521623e+00 
       9.292308612772e-07       3.594999086284e+00 
       1.169832344685e-06       4.464869621528e+00 
       1.472731666263e-06       5.545219952687e+00 
       1.854059319412e-06       6.886979184340e+00 
       2.334122392182e-06       8.553399549670e+00 
       2.938485993756e-06       1.062303817415e+01 
       3.699334689741e-06       1.319346030363e+01 
       4.657186447646e-06       1.638583854286e+01 
       5.863050366405e-06       2.035066486420e+01 
       7.381143096896e-06       2.527484455048e+01 
       9.292308612772e-06       3.139050627626e+01 
       1.169832344685e-05       3.898594322567e+01 
       1.472731666263e-05       4.841920020772e+01 
       1.854059319412e-05       6.013494564643e+01 
       2.334122392182e-05       7.468542063921e+01 
       2.938485993756e-05       9.275644635204e+01 
       3.699334689741e-05       1.151997034368e+02 
       4.657186447646e-05       1.430727808996e+02 
       5.863050366405e-05       1.776888347670e+02 
       7.381143096896e-05       2.206781042337e+02 
       9.292308612772e-05       2.740640030178e+02 
       1.169832344685e-04       3.403570183662e+02 
       1.472731666263e-04       4.226701592822e+02 
       1.854059319412e-04       5.248600870861e+02 
       2.334122392182e-04       6.516981214995e+02 
       2.938485993756e-04       8.090746835337e+02 
       3.699334689741e-04       1.004238912944e+03 
       4.657186447646e-04       1.246071717338e+03 
       5.863050366405e-04       1.545385330976e+03 
       7.381143096896e-04       1.915235709820e+03 
       9.292308612772e-04       2.371221555328e+03 
       1.169832344685e-03       2.931706500000e+03 
       1.472731666263e-03       3.617822388116e+03 
       1.854059319412e-03       4.453060469540e+03 
       2.334122392182e-03       5.462238218166e+03 
       2.938485993756e-03       6.669422791457e+03 
       3.699334689741e-03       8.094459016661e+03 
       4.657186447646e-03       9.697770189216e+03 
       5.863050366405e-03       1.154677520883e+04 
       7.381143096896e-03       1.356971837554e+04 
       9.292308612772e-03       1.568498452950e+04 
       1.169832344685e-02       1.775296237905e+04 
       1.472731666263e-02       1.956401186394e+04 
       1.854059319295e-02       2.084184977618e+04 
       2.334122093133e-02       2.128831892504e+04 
       2.938375316712e-02       2.070580538132e+04 
       3.690831393735e-02       1.921428928393e+04 
       4.495664721051e-02       1.757371599371e+04 
       5.093112274327e-02       1.657805489414e+04 
       5.549359472296e-02       1.595433230072e+04 
       5.940102914154e-02       1.548809267665e+04 
       6.296115659205e-02       1.509353565166e+04 
       6.632160770606e-02       1.472843708365e+04 
       6.956490642816e-02       1.436891959817e+04 
       7.274252076741e-02       1.400097039380e+04 
       7.588928489087e-02       1.361710850694e+04 
       7.903034311584e-02       1.321486734260e+04 
       8.218483160041e-02       1.279591738790e+04 
       8.536798079204e-02       1.236533915324e+04 
       8.859238858772e-02       1.193083195893e+04 
       9.186882868929e-02       1.150178125865e+04 
       9.520678413767e-02       1.108819013506e+04 
       9.861481091649e-02       1.069953525849e+04 
       1.021007923897e-01       1.034363184445e+04 
       1.056721212449e-01       1.002560299527e+04 
       1.093358318741e-01       9.747041699156e+03 
       1.130986979851e-01       9.505460069546e+03 
       1.169673052686e-01       9.294134318703e+03 
       1.209481058238e-01       9.102483103493e+03 
       1.250474590415e-01       8.917127071123e+03 
       1.292716623386e-01       8.723719270220e+03 
       1.336269742736e-01       8.509456294934e+03 
       1.381196319964e-01       8.265881000483e+03 
       1.427558646048e-01       7.991264921655e+03 
       1.475419037243e-01       7.691706515888e+03 
       1.524839924657e-01       7.380288650597e+03 
       1.575883938019e-01       7.074217153431e+03 
       1.628613993443e-01       6.790578484460e+03 
       1.683093394524e-01       6.541844700745e+03 
       1.739385955848e-01       6.332327539052e+03 
       1.797556157854e-01       6.156554227974e+03 
       1.857669341819e-01       6.000255576459e+03 
       1.919791953726e-01       5.844297026761e+03 
       1.983991845698e-01       5.671067593656e+03 
       2.050338643790e-01       5.471385029107e+03 
       2.118904191120e-01       5.248690360203e+03 
       2.189763075735e-01       5.017763342482e+03 
       2.262993253367e-01       4.797934476358e+03 
       2.338676776405e-01       4.604030640236e+03 
       2.416900642176e-01       4.439564741394e+03 
       2.497757776174e-01       4.295464413053e+03 
       2.581348169439e-01       4.155226147897e+03 
       2.667780194077e-01       4.004438593531e+03 
       2.757172127431e-01       3.839428322770e+03 
       2.849653923964e-01       3.668912384479e+03 
       2.945369285333e-01       3.506940116167e+03 
       3.044478094142e-01       3.362396746271e+03 
       3.147159296832e-01       3.233111785674e+03 
       3.253614347841e-01       3.108873194470e+03 
       3.364071363086e-01       2.980778016959e+03 
       3.478790179770e-01       2.848774356200e+03 
       3.598068587031e-01       2.720209404450e+03 
       3.722250086354e-01       2.601203102580e+03 
       3.851733674682e-01       2.490473367987e+03 
       3.986986336495e-01       2.382147545119e+03 
       4.128559215037e-01       2.273465889836e+03 
       4.277108857866e-01       2.167311161127e+03 
       4.433425581445e-01       2.066751314525e+03 
       4.598472015497e-01       1.970448263441e+03 
       4.773436517833e-01       1.875732974926e+03 
       4.959808840477e-01       1.783019510343e+03 
       5.159490010265e-01       1.693616229393e+03 
       5.374956475211e-01       1.606504812270e+03 
       5.609513429516e-01       1.520755956660e+03 
       5.867700812017e-01       1.436647141888e+03 
       6.155973368992e-01       1.353396262071e+03 
       6.483900554320e-01       1.270193747866e+03 
       6.866417405241e-01       1.186070003555e+03 
       7.328359538737e-01       1.099337755607e+03 
       7.914351738043e-01       1.007386337291e+03 
       8.711929404113e-01       9.057502673338e+02 
       9.904433752697e-01       7.868946337985e+02 
       1.183345244915e+00       6.425766755869e+02 
       1.475246696231e+00       4.845744660010e+02 
       1.856527261928e+00       3.439410937942e+02 
       2.337222211249e+00       2.331161962725e+02 
       2.942388422014e+00       1.525363363006e+02 
       3.704247555839e+00       9.729649553994e+01 
       4.663371379623e+00       6.095959312151e+01 
       5.870836734440e+00       3.772427114521e+01 
       7.390945553482e+00       2.314874027657e+01 
       9.304649174465e+00       1.412286035846e+01 
       1.171385929356e+01       8.582104137254e+00 
