# Matter power spectrum P(k) at redshift z=2.5
# for k=1.74764e-07 to 11.0387 h/Mpc,
# number of wavenumbers equal to 140
#    1:k (h/Mpc)              2:P (Mpc/h)^3        
       1.747642307931e-07       2.094822546063e-01 
       2.200151312181e-07       2.626982859204e-01 
       2.769826396697e-07       3.294331041306e-01 
       3.487004837060e-07       4.131209675165e-01 
       4.389879000424e-07       5.180685593449e-01 
       5.526530228335e-07       6.496766150258e-01 
       6.957489343499e-07       8.147178504432e-01 
       8.758960136819e-07       1.021685493811e+00 
       1.102687749713e-06       1.281230356102e+00 
       1.388201629388e-06       1.606708932918e+00 
       1.747642307931e-06       2.014870739305e+00 
       2.200151312181e-06       2.526720249039e+00 
       2.769826396697e-06       3.168597788053e+00 
       3.487004837060e-06       3.973534990653e+00 
       4.389879000424e-06       4.982954551229e+00 
       5.526530228335e-06       6.248801696193e+00 
       6.957489343499e-06       7.836216966937e+00 
       8.758960136819e-06       9.826887667908e+00 
       1.102687749713e-05       1.232325007987e+01 
       1.388201629388e-05       1.545375793206e+01 
       1.747642307931e-05       1.937948680261e+01 
       2.200151312181e-05       2.430241131937e+01 
       2.769826396697e-05       3.047577533094e+01 
       3.487004837060e-05       3.821707704220e+01 
       4.389879000424e-05       4.792431432073e+01 
       5.526530228335e-05       6.009628048901e+01 
       6.957489343499e-05       7.535786451992e+01 
       8.758960136819e-05       9.449147890162e+01 
       1.102687749713e-04       1.184758805395e+02 
       1.388201629388e-04       1.485336936934e+02 
       1.747642307931e-04       1.861887443588e+02 
       2.200151312181e-04       2.333336011967e+02 
       2.769826396697e-04       2.923060248641e+02 
       3.487004837060e-04       3.659696667431e+02 
       4.389879000424e-04       4.577886279693e+02 
       5.526530228335e-04       5.718775141267e+02 
       6.957489343499e-04       7.130011934664e+02 
       8.758960136819e-04       8.864975736439e+02 
       1.102687749713e-03       1.098099698959e+03 
       1.388201629388e-03       1.353594416904e+03 
       1.747642307931e-03       1.658121578442e+03 
       2.200151312181e-03       2.014933033111e+03 
       2.769826396697e-03       2.423801486859e+03 
       3.487004837060e-03       2.879016158674e+03 
       4.389879000424e-03       3.366753930358e+03 
       5.526530228335e-03       3.862335884597e+03 
       6.957489343499e-03       4.327482849351e+03 
       8.758960136819e-03       4.708085638450e+03 
       1.102687749713e-02       4.933934090791e+03 
       1.388201629387e-02       4.924499844398e+03 
       1.747642299279e-02       4.609737720000e+03 
       2.200143876705e-02       3.977363178833e+03 
       2.768690373921e-02       3.140265771543e+03 
       3.445712227093e-02       2.378817712695e+03 
       4.032034747881e-02       1.981925482035e+03 
       4.454767258265e-02       1.813055881856e+03 
       4.800860749094e-02       1.720741406509e+03 
       5.108695511581e-02       1.656846213254e+03 
       5.395169815390e-02       1.602053799900e+03 
       5.669139750165e-02       1.546844123516e+03 
       5.935878127095e-02       1.486257436878e+03 
       6.198830151531e-02       1.418075974139e+03 
       6.460413716321e-02       1.342035602990e+03 
       6.722426517202e-02       1.259358945932e+03 
       6.986271189812e-02       1.172364480310e+03 
       7.253088204183e-02       1.084069446400e+03 
       7.523838511447e-02       9.977770020073e+02 
       7.799357171628e-02       9.166754276527e+02 
       8.080389390045e-02       8.434895263174e+02 
       8.367615443147e-02       7.802189137023e+02 
       8.661668334551e-02       7.279777923509e+02 
       8.963146545156e-02       6.869273152538e+02 
       9.272623381166e-02       6.562756555132e+02 
       9.590653905597e-02       6.343239800254e+02 
       9.917780117368e-02       6.185631329209e+02 
       1.025453483776e-01       6.058596743589e+02 
       1.060144463160e-01       5.927881883000e+02 
       1.095903200356e-01       5.761385044780e+02 
       1.132781705199e-01       5.535441336223e+02 
       1.170831872441e-01       5.240716429416e+02 
       1.210105579314e-01       4.885425267299e+02 
       1.250654765254e-01       4.494008916393e+02 
       1.292531502866e-01       4.101009311555e+02 
       1.335788068486e-01       3.741973241905e+02 
       1.380477020277e-01       3.444456826693e+02 
       1.426651291517e-01       3.221764231561e+02 
       1.474364306549e-01       3.070411908095e+02 
       1.523670126787e-01       2.971086128572e+02 
       1.574623634049e-01       2.893055765455e+02 
       1.627280758477e-01       2.802545838083e+02 
       1.681698758327e-01       2.674224613041e+02 
       1.737936558991e-01       2.501526841062e+02 
       1.796055158913e-01       2.299539558138e+02 
       1.856118110515e-01       2.097380815636e+02 
       1.918192085052e-01       1.923913301729e+02 
       1.982347531562e-01       1.794789894645e+02 
       2.048659441858e-01       1.706713764339e+02 
       2.117208236054e-01       1.640266138286e+02 
       2.188080786618e-01       1.570193891272e+02 
       2.261371603643e-01       1.479548030404e+02 
       2.337184210325e-01       1.369542556760e+02 
       2.415632745951e-01       1.257025411286e+02 
       2.496843844698e-01       1.160938502094e+02 
       2.580958853139e-01       1.088713462063e+02 
       2.668136468710e-01       1.032445223031e+02 
       2.758555907482e-01       9.766845857053e+01 
       2.852420744782e-01       9.118673705241e+01 
       2.949963620646e-01       8.418342539663e+01 
       3.051452069225e-01       7.778501903703e+01 
       3.157195825989e-01       7.258901837815e+01 
       3.267556102152e-01       6.812252112416e+01 
       3.382957513207e-01       6.354907074827e+01 
       3.503903641283e-01       5.871606946099e+01 
       3.630997654336e-01       5.418083511901e+01 
       3.764970090826e-01       5.025839958137e+01 
       3.906717005479e-01       4.659693829884e+01 
       4.057353441428e-01       4.288034007498e+01 
       4.218290163494e-01       3.932519050098e+01 
       4.391346740177e-01       3.608903004429e+01 
       4.578923349641e-01       3.294922158229e+01 
       4.784271160964e-01       2.988137651153e+01 
       5.011935672419e-01       2.698465186574e+01 
       5.268519514237e-01       2.414264593709e+01 
       5.564071613150e-01       2.137188072441e+01 
       5.914791599754e-01       1.862460721073e+01 
       6.348712143623e-01       1.586783091964e+01 
       6.918609044491e-01       1.304256478072e+01 
       7.732548115077e-01       1.009630546474e+01 
       9.012842538087e-01       7.067194257466e+00 
       1.106195606762e+00       4.356446232194e+00 
       1.389733043739e+00       2.520201228776e+00 
       1.749509718255e+00       1.439027580541e+00 
       2.202501989826e+00       8.155162573769e-01 
       2.772785724367e+00       4.590481842764e-01 
       3.490730409865e+00       2.568062964379e-01 
       4.394569218702e+00       1.428580721674e-01 
       5.532434863313e+00       7.906034959349e-02 
       6.964922838520e+00       4.354579013560e-02 
       8.768318352599e+00       2.387943924925e-02 
       1.103865879279e+01       1.304150175419e-02 
