# Matter power spectrum P(k) at redshift z=2.5
# for k=2.12159e-07 to 10.647 h/Mpc,
# number of wavenumbers equal to 139
#    1:k (h/Mpc)              2:P (Mpc/h)^3        
       2.121591077893e-07       1.120008281620e-01 
       2.670924921395e-07       1.402785388596e-01 
       3.362495256538e-07       1.756957406136e-01 
       4.233130725493e-07       2.200549955883e-01 
       5.329195841770e-07       2.756139724672e-01 
       6.709060069632e-07       3.452003510675e-01 
       8.446206210914e-07       4.323557365846e-01 
       1.063314363217e-06       5.415159099302e-01 
       1.338633472580e-06       6.782365860478e-01 
       1.685239695709e-06       8.494761716881e-01 
       2.121591077893e-06       1.063949909816e+00 
       2.670924921395e-06       1.332573437010e+00 
       3.362495256538e-06       1.669018321507e+00 
       4.233130725493e-06       2.090407853796e+00 
       5.329195841770e-06       2.618188484751e+00 
       6.709060069632e-06       3.279221239005e+00 
       8.446206210914e-06       4.107148605338e+00 
       1.063314363217e-05       5.144106355949e+00 
       1.338633472580e-05       6.442867235061e+00 
       1.685239695709e-05       8.069525203868e+00 
       2.121591077893e-05       1.010685606837e+01 
       2.670924921395e-05       1.265852394684e+01 
       3.362495256538e-05       1.585434454410e+01 
       4.233130725493e-05       1.985686687596e+01 
       5.329195841770e-05       2.486959613760e+01 
       6.709060069632e-05       3.114725179457e+01 
       8.446206210914e-05       3.900853480362e+01 
       1.063314363217e-04       4.885195850445e+01 
       1.338633472580e-04       6.117536160905e+01 
       1.685239695709e-04       7.659972993026e+01 
       2.121591077893e-04       9.589782810818e+01 
       2.670924921395e-04       1.200277369542e+02 
       3.362495256538e-04       1.501704530145e+02 
       4.233130725493e-04       1.877688512649e+02 
       5.329195841770e-04       2.345621220739e+02 
       6.709060069632e-04       2.926052518603e+02 
       8.446206210914e-04       3.642586642801e+02 
       1.063314363217e-03       4.521325044335e+02 
       1.338633472580e-03       5.589744160935e+02 
       1.685239695709e-03       6.874785817194e+02 
       2.121591077893e-03       8.399288033942e+02 
       2.670924921395e-03       1.017567972911e+03 
       3.362495256538e-03       1.219795749837e+03 
       4.233130725493e-03       1.443245384625e+03 
       5.329195841770e-03       1.680740318936e+03 
       6.709060069632e-03       1.919649210836e+03 
       8.446206210914e-03       2.144083107258e+03 
       1.063314363217e-02       2.331325526334e+03 
       1.338633472580e-02       2.455250595985e+03 
       1.685239695709e-02       2.488675084181e+03 
       2.121591075684e-02       2.409446076552e+03 
       2.670922109401e-02       2.211602729961e+03 
       3.361903391007e-02       1.920317935446e+03 
       4.204725540566e-02       1.604761687760e+03 
       4.999122636789e-02       1.379173426583e+03 
       5.567526936607e-02       1.253405992229e+03 
       6.021855660893e-02       1.166875020628e+03 
       6.420870368089e-02       1.097234258842e+03 
       6.789522653835e-02       1.036171233693e+03 
       7.140486267404e-02       9.800187479169e+02 
       7.481140621491e-02       9.270691667528e+02 
       7.816227921242e-02       8.765937158142e+02 
       8.149033128582e-02       8.283984452234e+02 
       8.481972562585e-02       7.825814725941e+02 
       8.816914524541e-02       7.393777353653e+02 
       9.155366316022e-02       6.990487903228e+02 
       9.498589432735e-02       6.618014398695e+02 
       9.847673725746e-02       6.277292959736e+02 
       1.020358691310e-01       5.967758318794e+02 
       1.056720864282e-01       5.687190380827e+02 
       1.093935451530e-01       5.431781496987e+02 
       1.132079336962e-01       5.196428426571e+02 
       1.171225992289e-01       4.975245827371e+02 
       1.211446412385e-01       4.762263933995e+02 
       1.252809813295e-01       4.552239760501e+02 
       1.295384155701e-01       4.341451593083e+02 
       1.339236538315e-01       4.128305307398e+02 
       1.384433493636e-01       3.913577607827e+02 
       1.431041210521e-01       3.700171618055e+02 
       1.479125702723e-01       3.492384673636e+02 
       1.528752939016e-01       3.294822806814e+02 
       1.579988948174e-01       3.111223679794e+02 
       1.632899910578e-01       2.943491555781e+02 
       1.687552247232e-01       2.791211215917e+02 
       1.744012716364e-01       2.651793287302e+02 
       1.802348527411e-01       2.521251599101e+02 
       1.862627481938e-01       2.395425073318e+02 
       1.924918150892e-01       2.271276487465e+02 
       1.989290097477e-01       2.147792505055e+02 
       2.055814154884e-01       2.026097409456e+02 
       2.124562768111e-01       1.908698279235e+02 
       2.195610409215e-01       1.798192653693e+02 
       2.269034075639e-01       1.696043113174e+02 
       2.344913881787e-01       1.601993115269e+02 
       2.423333754957e-01       1.514370383590e+02 
       2.504382248178e-01       1.431070085924e+02 
       2.588153484627e-01       1.350645905740e+02 
       2.674748251322e-01       1.272878156099e+02 
       2.764275263953e-01       1.198519809054e+02 
       2.856852630385e-01       1.128477119933e+02 
       2.952609547888e-01       1.063051525637e+02 
       3.051688279164e-01       1.001763881796e+02 
       3.154246465492e-01       9.437887057660e+01 
       3.260459852775e-01       8.885524569251e+01 
       3.370525529611e-01       8.359786068706e+01 
       3.484665807634e-01       7.862469056483e+01 
       3.603132916596e-01       7.393970940823e+01 
       3.726214744274e-01       6.951923586747e+01 
       3.854241931237e-01       6.533086041745e+01 
       3.987596742752e-01       6.135578490558e+01 
       4.126724300359e-01       5.758862622918e+01 
       4.272146988131e-01       5.402202011495e+01 
       4.424483192242e-01       5.064018830488e+01 
       4.584472050219e-01       4.742683158110e+01 
       4.753006683666e-01       4.437105645714e+01 
       4.931179645778e-01       4.146319800116e+01 
       5.120346351015e-01       3.869088571785e+01 
       5.322215649179e-01       3.604142234853e+01 
       5.538982555659e-01       3.350311544634e+01 
       5.773528609027e-01       3.106328622299e+01 
       6.029734830116e-01       2.870780920931e+01 
       6.312990396378e-01       2.642138668816e+01 
       6.631058881559e-01       2.418595860226e+01 
       6.995636717579e-01       2.198000819427e+01 
       7.425344341978e-01       1.977577984565e+01 
       7.951911779932e-01       1.753633387194e+01 
       8.634025236895e-01       1.520942617272e+01 
       9.590080211722e-01       1.272569474864e+01 
       1.106734160788e+00       1.004356320853e+01 
       1.345754593953e+00       7.366561577724e+00 
       1.687582066562e+00       5.241521847068e+00 
       2.124350968281e+00       3.774132436825e+00 
       2.674398303402e+00       2.752086293588e+00 
       3.366867984390e+00       2.019117366883e+00 
       4.238635663705e+00       1.479521040423e+00 
       5.336126148376e+00       1.074869719867e+00 
       6.717784808729e+00       7.690608289400e-01 
       8.457190006674e+00       5.389601909120e-01 
       1.064697141177e+01       3.685493132696e-01 
