# Matter power spectrum P(k) at redshift z=0.5
# for k=1.66487e-07 to 10.5173 h/Mpc,
# number of wavenumbers equal to 140
#    1:k (h/Mpc)              2:P (Mpc/h)^3        
       1.664874208107e-07       1.262743216384e+00 
       2.095952448026e-07       1.583744221946e+00 
       2.638647798732e-07       1.986346650621e+00 
       3.321860766599e-07       2.491294337081e+00 
       4.181974933513e-07       3.124604388071e+00 
       5.264794515286e-07       3.918907695471e+00 
       6.627983603168e-07       4.915130216969e+00 
       8.344136986983e-07       6.164601650105e+00 
       1.050464609240e-06       7.731700142075e+00 
       1.322456590763e-06       9.697169292090e+00 
       1.664874208107e-06       1.216227833422e+01 
       2.095952448026e-06       1.525403980808e+01 
       2.638647798732e-06       1.913175348045e+01 
       3.321860766599e-06       2.399521352646e+01 
       4.181974933513e-06       3.009500152776e+01 
       5.264794515286e-06       3.774539501375e+01 
       6.627983603168e-06       4.734055539183e+01 
       8.344136986983e-06       5.937482690477e+01 
       1.050464609240e-05       7.446818759620e+01 
       1.322456590763e-05       9.339815391061e+01 
       1.664874208107e-05       1.171397635061e+02 
       2.095952448026e-05       1.469156579763e+02 
       2.638647798732e-05       1.842587698599e+02 
       3.321860766599e-05       2.310906927554e+02 
       4.181974933513e-05       2.898194731830e+02 
       5.264794515286e-05       3.634612707372e+02 
       6.627983603168e-05       4.557909871784e+02 
       8.344136986983e-05       5.715273327362e+02 
       1.050464609240e-04       7.165573965696e+02 
       1.322456590763e-04       8.982036840446e+02 
       1.664874208107e-04       1.125531103975e+03 
       2.095952448026e-04       1.409679862103e+03 
       2.638647798732e-04       1.764189246138e+03 
       3.321860766599e-04       2.205244940025e+03 
       4.181974933513e-04       2.751744545441e+03 
       5.264794515286e-04       3.425053761906e+03 
       6.627983603168e-04       4.248338494948e+03 
       8.344136986983e-04       5.245317532860e+03 
       1.050464609240e-03       6.437920914971e+03 
       1.322456590763e-03       7.841964874358e+03 
       1.664874208107e-03       9.460902403696e+03 
       2.095952448026e-03       1.127809842163e+04 
       2.638647798732e-03       1.324835815216e+04 
       3.321860766599e-03       1.529091769263e+04 
       4.181974933513e-03       1.728393772654e+04 
       5.264794515286e-03       1.906538336493e+04 
       6.627983603168e-03       2.042778921837e+04 
       8.344136986983e-03       2.117897628317e+04 
       1.050464609240e-02       2.109548538727e+04 
       1.322456590763e-02       1.999485268182e+04 
       1.664874208064e-02       1.778603808527e+04 
       2.095952313403e-02       1.458442475371e+04 
       2.638588055255e-02       1.086443425374e+04 
       3.316534296088e-02       7.494178363505e+03 
       4.064659039016e-02       5.435223308864e+03 
       4.634338549564e-02       4.668140817863e+03 
       5.063022667740e-02       4.338680733300e+03 
       5.426888074909e-02       4.132163174448e+03 
       5.756806855243e-02       3.955400825192e+03 
       6.067314420451e-02       3.772818327296e+03 
       6.366426342824e-02       3.570573038074e+03 
       6.659092712922e-02       3.345867719311e+03 
       6.948638604676e-02       3.102535997235e+03 
       7.237449605389e-02       2.848465601649e+03 
       7.527332082929e-02       2.593620396281e+03 
       7.819717504173e-02       2.348351737576e+03 
       8.115785482474e-02       2.122000685588e+03 
       8.416541553692e-02       1.921876856781e+03 
       8.722868321268e-02       1.752671124862e+03 
       9.035560205443e-02       1.616276752618e+03 
       9.355347698530e-02       1.511908826263e+03 
       9.682914674042e-02       1.436373614599e+03 
       1.001891096035e-01       1.384376442440e+03 
       1.036396160085e-01       1.348862165376e+03 
       1.071867374192e-01       1.321506158718e+03 
       1.108364178946e-01       1.293531379565e+03 
       1.145945128152e-01       1.256944101471e+03 
       1.184668179968e-01       1.206046919567e+03 
       1.224590915834e-01       1.138800650359e+03 
       1.265770705631e-01       1.057454199352e+03 
       1.308264833812e-01       9.680154716476e+02 
       1.352130598839e-01       8.785978232825e+02 
       1.397425396640e-01       7.972004119836e+02 
       1.444206797766e-01       7.297165812246e+02 
       1.492532627318e-01       6.787456347574e+02 
       1.542461056236e-01       6.433165425088e+02 
       1.594050712362e-01       6.193310068547e+02 
       1.647360819471e-01       6.005978115472e+02 
       1.702451372366e-01       5.804934769718e+02 
       1.759383356097e-01       5.540812264505e+02 
       1.818219017279e-01       5.199245970659e+02 
       1.879022195587e-01       4.805105437737e+02 
       1.941858723664e-01       4.408179757452e+02 
       2.006796904019e-01       4.057955882618e+02 
       2.073908072179e-01       3.781789401898e+02 
       2.143267256361e-01       3.576242586263e+02 
       2.214953945517e-01       3.412784460317e+02 
       2.289052979850e-01       3.254163084899e+02 
       2.365655581051e-01       3.074578379148e+02 
       2.444860543834e-01       2.872658366014e+02 
       2.526775616074e-01       2.668009063178e+02 
       2.611519102586e-01       2.484140261835e+02 
       2.699221737706e-01       2.331600471926e+02 
       2.790028885285e-01       2.203203054020e+02 
       2.884103142516e-01       2.082688567895e+02 
       2.981627447825e-01       1.958805931354e+02 
       3.082808825028e-01       1.832976131916e+02 
       3.187882939572e-01       1.714394238773e+02 
       3.297119702658e-01       1.608993464804e+02 
       3.410830242818e-01       1.514197038184e+02 
       3.529375683297e-01       1.423624040939e+02 
       3.653178334565e-01       1.334737808989e+02 
       3.782736161964e-01       1.250075147535e+02 
       3.918641762880e-01       1.171922119052e+02 
       4.061607658849e-01       1.098941032716e+02 
       4.212500598821e-01       1.028911116513e+02 
       4.372388995103e-01       9.618752461554e+01 
       4.542609958544e-01       8.986060931230e+01 
       4.724866380205e-01       8.384445669285e+01 
       4.921371505689e-01       7.805755007760e+01 
       5.135071251845e-01       7.250407557541e+01 
       5.369999016211e-01       6.714606299219e+01 
       5.631867076428e-01       6.192860238118e+01 
       5.929104010826e-01       5.681260243123e+01 
       6.274787525157e-01       5.173199902897e+01 
       6.690508120371e-01       4.660737885789e+01 
       7.214724228345e-01       4.132489491964e+01 
       7.922191166560e-01       3.572746580987e+01 
       8.969003154478e-01       2.963133226092e+01 
       1.065554385875e+00       2.309511348588e+01 
       1.324809017535e+00       1.711030850688e+01 
       1.666889832904e+00       1.263457106760e+01 
       2.098478576929e+00       9.386892321700e+00 
       2.641827981835e+00       6.972528062978e+00 
       3.325864379915e+00       5.142654750935e+00 
       4.187015184056e+00       3.742892458778e+00 
       5.271139814776e+00       2.674057081746e+00 
       6.635971861941e+00       1.867919775661e+00 
       8.354193608948e+00       1.272579820207e+00 
       1.051730662935e+01       8.446600473875e-01 
