# Matter power spectrum P(k) at redshift z=0.5
# for k=1.84536e-07 to 11.6557 h/Mpc,
# number of wavenumbers equal to 140
#    1:k (h/Mpc)              2:P (Mpc/h)^3        
       1.845363078039e-07       1.020101292018e+00 
       2.323174472930e-07       1.266232036796e+00 
       2.924703380003e-07       1.571749377403e+00 
       3.681983407047e-07       1.950982152130e+00 
       4.635342476935e-07       2.421716470660e+00 
       5.835550436583e-07       3.006029886457e+00 
       7.346522736421e-07       3.731326837990e+00 
       9.248724161204e-07       4.631623921108e+00 
       1.164345387321e-06       5.749145270625e+00 
       1.465823996204e-06       7.136302872219e+00 
       1.845363078039e-06       8.858154677200e+00 
       2.323174472930e-06       1.099545579662e+01 
       2.924703380003e-06       1.364844585806e+01 
       3.681983407047e-06       1.694155011313e+01 
       4.635342476935e-06       2.102921470845e+01 
       5.835550436583e-06       2.610314964960e+01 
       7.346522736421e-06       3.240131887084e+01 
       9.248724161204e-06       4.021909848047e+01 
       1.164345387321e-05       4.992312542041e+01 
       1.465823996204e-05       6.196848385535e+01 
       1.845363078039e-05       7.692003109587e+01 
       2.323174472930e-05       9.547885485039e+01 
       2.924703380003e-05       1.185150862039e+02 
       3.681983407047e-05       1.471085748891e+02 
       4.635342476935e-05       1.825992710718e+02 
       5.835550436583e-05       2.266495521947e+02 
       7.346522736421e-05       2.813211748529e+02 
       9.248724161204e-05       3.491699873251e+02 
       1.164345387321e-04       4.333619281158e+02 
       1.465823996204e-04       5.378139929131e+02 
       1.845363078039e-04       6.673634597098e+02 
       2.323174472930e-04       8.279671796592e+02 
       2.924703380003e-04       1.026929385457e+03 
       3.681983407047e-04       1.273150439981e+03 
       4.635342476935e-04       1.577380203039e+03 
       5.835550436583e-04       1.952449931302e+03 
       7.346522736421e-04       2.413446394248e+03 
       9.248724161204e-04       2.977763929442e+03 
       1.164345387321e-03       3.664875116365e+03 
       1.465823996204e-03       4.495507060230e+03 
       1.845363078039e-03       5.490022416882e+03 
       2.323174472930e-03       6.665614458489e+03 
       2.924703380003e-03       8.031950077915e+03 
       3.681983407047e-03       9.585061252025e+03 
       4.635342476935e-03       1.127969119247e+04 
       5.835550436583e-03       1.308395720251e+04 
       7.346522736421e-03       1.487552211402e+04 
       9.248724161204e-03       1.648046211627e+04 
       1.164345387321e-02       1.764866366099e+04 
       1.465823996195e-02       1.806239046405e+04 
       1.845363035819e-02       1.740330386207e+04 
       2.323149963871e-02       1.553036628498e+04 
       2.921982877803e-02       1.276496383414e+04 
       3.608059490324e-02       1.016345640837e+04 
       4.155725255429e-02       8.791089219088e+03 
       4.559562762772e-02       8.123377197050e+03 
       4.897568326831e-02       7.720650211087e+03 
       5.201746506253e-02       7.431602859606e+03 
       5.486754283415e-02       7.189473094020e+03 
       5.760510831425e-02       6.958614011782e+03 
       6.027835171637e-02       6.718438521742e+03 
       6.291928228254e-02       6.457575538705e+03 
       6.555065986030e-02       6.171375326458e+03 
       6.818959001011e-02       5.860569026015e+03 
       7.084954213506e-02       5.530242951934e+03 
       7.354155499585e-02       5.188786548491e+03 
       7.627499366680e-02       4.846706309543e+03 
       7.905804460386e-02       4.515332646526e+03 
       8.189805049547e-02       4.205522169317e+03 
       8.480174312555e-02       3.926487502795e+03 
       8.777540904834e-02       3.684866442259e+03 
       9.082500964948e-02       3.484088194564e+03 
       9.395626940781e-02       3.324031917314e+03 
       9.717474146512e-02       3.200940840177e+03 
       1.004858566759e-01       3.107579347448e+03 
       1.038949604343e-01       3.033701847863e+03 
       1.074073403580e-01       2.966984070020e+03 
       1.110282471032e-01       2.894566062306e+03 
       1.147629100545e-01       2.805191301704e+03 
       1.186165492733e-01       2.691603782202e+03 
       1.225943848573e-01       2.552521338514e+03 
       1.267016447040e-01       2.393366315640e+03 
       1.309435715741e-01       2.225206845726e+03 
       1.353254302849e-01       2.062014771380e+03 
       1.398525158246e-01       1.917059180547e+03 
       1.445301631545e-01       1.799575332560e+03 
       1.493637594481e-01       1.712582128862e+03 
       1.543587595075e-01       1.652169656429e+03 
       1.595207050889e-01       1.608292891690e+03 
       1.648552488679e-01       1.567225262919e+03 
       1.703681837763e-01       1.515732788075e+03 
       1.760654784586e-01       1.446052025975e+03 
       1.819533196237e-01       1.359363561244e+03 
       1.880381621242e-01       1.265327352346e+03 
       1.943267876831e-01       1.177373519032e+03 
       2.008263733213e-01       1.106285544045e+03 
       2.075445707359e-01       1.055468197031e+03 
       2.144895981535e-01       1.019794328958e+03 
       2.216703465539e-01       9.882953975869e+02 
       2.290965026688e-01       9.500366721818e+02 
       2.367786918264e-01       9.006558272640e+02 
       2.447286446027e-01       8.449630626189e+02 
       2.529593924143e-01       7.929020432936e+02 
       2.614854987434e-01       7.519344700586e+02 
       2.703233347583e-01       7.218832897956e+02 
       2.794914108845e-01       6.957295838349e+02 
       2.890107796677e-01       6.657542999070e+02 
       2.989055304763e-01       6.303780014899e+02 
       3.092034038498e-01       5.949775442006e+02 
       3.199365635552e-01       5.654726136664e+02 
       3.311425791551e-01       5.419160879138e+02 
       3.428656934311e-01       5.191531393733e+02 
       3.551584810958e-01       4.936360441055e+02 
       3.680840539991e-01       4.677194097854e+02 
       3.817190438612e-01       4.452384970878e+02 
       3.961577144109e-01       4.253519163786e+02 
       4.115177527572e-01       4.046678888761e+02 
       4.279486242079e-01       3.835593531016e+02 
       4.456439594267e-01       3.643762997847e+02 
       4.648605057297e-01       3.458852673075e+02 
       4.859481939008e-01       3.268486186766e+02 
       5.093999067768e-01       3.086050199423e+02 
       5.359380701446e-01       2.902222182934e+02 
       5.666744318905e-01       2.715621211268e+02 
       6.034259099909e-01       2.522966535738e+02 
       6.493894660070e-01       2.318853098309e+02 
       7.106973836218e-01       2.093997292483e+02 
       8.000686059090e-01       1.835595948727e+02 
       9.428588398942e-01       1.532196673624e+02 
       1.166743431302e+00       1.209911625044e+02 
       1.467379533242e+00       9.295190312453e+01 
       1.847299134115e+00       7.011478399857e+01 
       2.325611759304e+00       5.167294453333e+01 
       2.927771741731e+00       3.703627496133e+01 
       3.685846245598e+00       2.574301086260e+01 
       4.640205502550e+00       1.734577405952e+01 
       5.841672623107e+00       1.135505166028e+01 
       7.354230112611e+00       7.248822171733e+00 
       9.258427172948e+00       4.531426664361e+00 
       1.165566924127e+01       2.785077550757e+00 
