# Matter power spectrum P(k) at redshift z=2
# for k=2.20891e-07 to 11.0845 h/Mpc,
# number of wavenumbers equal to 139
#    1:k (h/Mpc)              2:P (Mpc/h)^3        
       2.208913456093e-07       1.279691784748e-01 
       2.780857282329e-07       1.596156172462e-01 
       3.500891899297e-07       1.990881364458e-01 
       4.407361775970e-07       2.483221050154e-01 
       5.548539738739e-07       3.097315034019e-01 
       6.985197675448e-07       3.863272830024e-01 
       8.793842860027e-07       4.818649952950e-01 
       1.107079224381e-06       6.010289293890e-01 
       1.393730168443e-06       7.496617859743e-01 
       1.754602326237e-06       9.350511488938e-01 
       2.208913456093e-06       1.166286799647e+00 
       2.780857282329e-06       1.454706393176e+00 
       3.500891899297e-06       1.814451346381e+00 
       4.407361775970e-06       2.263160191721e+00 
       5.548539738739e-06       2.822833383727e+00 
       6.985197675448e-06       3.520911952273e+00 
       8.793842860027e-06       4.391622868022e+00 
       1.107079224381e-05       5.477657032952e+00 
       1.393730168443e-05       6.832262091532e+00 
       1.754602326237e-05       8.521852494717e+00 
       2.208913456093e-05       1.062926444463e+01 
       2.780857282329e-05       1.325781464677e+01 
       3.500891899297e-05       1.653636051640e+01 
       4.407361775970e-05       2.062560731774e+01 
       5.548539738739e-05       2.572596623834e+01 
       6.985197675448e-05       3.208733841299e+01 
       8.793842860027e-05       4.002128427445e+01 
       1.107079224381e-04       4.991613504196e+01 
       1.393730168443e-04       6.225570900988e+01 
       1.754602326237e-04       7.764239775467e+01 
       2.208913456093e-04       9.682545895044e+01 
       2.780857282329e-04       1.207353387564e+02 
       3.500891899297e-04       1.505246497085e+02 
       4.407361775970e-04       1.876158947281e+02 
       5.548539738739e-04       2.337549647134e+02 
       6.985197675448e-04       2.910677435814e+02 
       8.793842860027e-04       3.621150711550e+02 
       1.107079224381e-03       4.499393497620e+02 
       1.393730168443e-03       5.580926073383e+02 
       1.754602326237e-03       6.906128940368e+02 
       2.208913456093e-03       8.519231506219e+02 
       2.780857282329e-03       1.046524573687e+03 
       3.500891899297e-03       1.278490253515e+03 
       4.407361775970e-03       1.548969329393e+03 
       5.548539738739e-03       1.860641329605e+03 
       6.985197675448e-03       2.207904473610e+03 
       8.793842860027e-03       2.578854839611e+03 
       1.107079224381e-02       2.950585291604e+03 
       1.393730168443e-02       3.285368491924e+03 
       1.754602326182e-02       3.528922993173e+03 
       2.208913290520e-02       3.616704875853e+03 
       2.780786718444e-02       3.498201259304e+03 
       3.494805604144e-02       3.186002448826e+03 
       4.277604121776e-02       2.829970430756e+03 
       4.870013432491e-02       2.613650338977e+03 
       5.317248414560e-02       2.484582661238e+03 
       5.697632041890e-02       2.392568805378e+03 
       6.042906731169e-02       2.317879132487e+03 
       6.368080352668e-02       2.250953702135e+03 
       6.681454247324e-02       2.186377714872e+03 
       6.988166299089e-02       2.120885640411e+03 
       7.291673550865e-02       2.052583705479e+03 
       7.594459634914e-02       1.980603593220e+03 
       7.898407284684e-02       1.904914999801e+03 
       8.205009923075e-02       1.826187246959e+03 
       8.515499244716e-02       1.745650910611e+03 
       8.830925938954e-02       1.664937839700e+03 
       9.152212816487e-02       1.585897007980e+03 
       9.480190929438e-02       1.510393532536e+03 
       9.815624797638e-02       1.440104339526e+03 
       1.015923041888e-01       1.376327791873e+03 
       1.051168835661e-01       1.319822958784e+03 
       1.087365338125e-01       1.270693351267e+03 
       1.124576164305e-01       1.228328072512e+03 
       1.162863604238e-01       1.191415745377e+03 
       1.202289026322e-01       1.158049597479e+03 
       1.242913180536e-01       1.125939760418e+03 
       1.284796426466e-01       1.092737286479e+03 
       1.327998905345e-01       1.056443238644e+03 
       1.372580671516e-01       1.015833116039e+03 
       1.418601796163e-01       9.707867051544e+02 
       1.466122454540e-01       9.224019242837e+02 
       1.515203006834e-01       8.728119931055e+02 
       1.565904082120e-01       8.247108088619e+02 
       1.618286674450e-01       7.806938021602e+02 
       1.672412259862e-01       7.425870898072e+02 
       1.728342942907e-01       7.109432610319e+02 
       1.786141641189e-01       6.848411199999e+02 
       1.845872316338e-01       6.620766832385e+02 
       1.907600259810e-01       6.397746032061e+02 
       1.971392441963e-01       6.153318506959e+02 
       2.037317933057e-01       5.874093523462e+02 
       2.105448405187e-01       5.565203866828e+02 
       2.175858724863e-01       5.248339878727e+02 
       2.248627647062e-01       4.951877797328e+02 
       2.323838623181e-01       4.697621897896e+02 
       2.401580737777e-01       4.490631120765e+02 
       2.481949792247e-01       4.317031126488e+02 
       2.565049558178e-01       4.151374504684e+02 
       2.650993229182e-01       3.970936517106e+02 
       2.739905108135e-01       3.769385562051e+02 
       2.831922577464e-01       3.560179707017e+02 
       2.927198414287e-01       3.366014755106e+02 
       3.025903531031e-01       3.201744161914e+02 
       3.128230247252e-01       3.063735314131e+02 
       3.234396232170e-01       2.933848174436e+02 
       3.344649303461e-01       2.795466275807e+02 
       3.459273331194e-01       2.648158050053e+02 
       3.578595584373e-01       2.506276569111e+02 
       3.702995983008e-01       2.382316606764e+02 
       3.832918899512e-01       2.273290275976e+02 
       3.968888418334e-01       2.165690516912e+02 
       4.111528359014e-01       2.053180306810e+02 
       4.261588972405e-01       1.943645030108e+02 
       4.419983163647e-01       1.845220013944e+02 
       4.587836606347e-01       1.753220648175e+02 
       4.766558600051e-01       1.659686933421e+02 
       4.957944749049e-01       1.567712991131e+02 
       5.164329977001e-01       1.482176702563e+02 
       5.388824009118e-01       1.398165893881e+02 
       5.635687540071e-01       1.314014406482e+02 
       5.910959912576e-01       1.232754541685e+02 
       6.223561583529e-01       1.150784319456e+02 
       6.587351224522e-01       1.068417354834e+02 
       7.025244939345e-01       9.834400458638e+01 
       7.578140412445e-01       8.940438093236e+01 
       8.325695492322e-01       7.965749041289e+01 
       9.434374780050e-01       6.864739410160e+01 
       1.122242530581e+00       5.622970747671e+01 
       1.396180592270e+00       4.402602097139e+01 
       1.756775705069e+00       3.401147446278e+01 
       2.211638989093e+00       2.599103220302e+01 
       2.784288503040e+00       1.949048776711e+01 
       3.505211550237e+00       1.424409813247e+01 
       4.412799894308e+00       1.009409466717e+01 
       5.555385924107e+00       6.916683363098e+00 
       6.993816512182e+00       4.583780666649e+00 
       8.804693332612e+00       2.947364837738e+00 
       1.108445217948e+01       1.847454628116e+00 
