# Matter power spectrum P(k) at redshift z=1
# for k=2.15622e-07 to 10.8206 h/Mpc,
# number of wavenumbers equal to 139
#    1:k (h/Mpc)              2:P (Mpc/h)^3        
       2.156223732048e-07       3.048668109115e-01 
       2.714524849789e-07       3.821555292734e-01 
       3.417384314347e-07       4.790382005413e-01 
       4.302231955198e-07       6.004822119070e-01 
       5.416189135831e-07       7.527142641262e-01 
       6.818578138182e-07       9.435396280552e-01 
       8.584081290461e-07       1.182742337656e+00 
       1.080671807347e-06       1.482586838230e+00 
       1.360485200078e-06       1.858446809768e+00 
       1.712749390749e-06       2.329593407410e+00 
       2.156223732048e-06       2.920183328848e+00 
       2.714524849789e-06       3.660497371174e+00 
       3.417384314347e-06       4.588492971518e+00 
       4.302231955198e-06       5.751750324779e+00 
       5.416189135831e-06       7.209911836864e+00 
       6.818578138182e-06       9.037739949091e+00 
       8.584081290461e-06       1.132895003014e+01 
       1.080671807347e-05       1.420101468525e+01 
       1.360485200078e-05       1.780118547979e+01 
       1.712749390749e-05       2.231404015698e+01 
       2.156223732048e-05       2.797094099504e+01 
       2.714524849789e-05       3.506188663504e+01 
       3.417384314347e-05       4.395035985046e+01 
       4.302231955198e-05       5.509192221278e+01 
       5.416189135831e-05       6.905748860434e+01 
       6.818578138182e-05       8.656243435759e+01 
       8.584081290461e-05       1.085029473472e+02 
       1.080671807347e-04       1.360013308696e+02 
       1.360485200078e-04       1.704622700890e+02 
       1.712749390749e-04       2.136423425732e+02 
       2.156223732048e-04       2.677351721092e+02 
       2.714524849789e-04       3.354743861009e+02 
       3.417384314347e-04       4.202555942392e+02 
       4.302231955198e-04       5.262764883442e+02 
       5.416189135831e-04       6.586904803434e+02 
       6.818578138182e-04       8.237642688835e+02 
       8.584081290461e-04       1.029024376420e+03 
       1.080671807347e-03       1.283369975523e+03 
       1.360485200078e-03       1.597101794275e+03 
       1.712749390749e-03       1.981744965366e+03 
       2.156223732048e-03       2.449494909292e+03 
       2.714524849789e-03       3.012159656734e+03 
       3.417384314347e-03       3.679389670531e+03 
       4.302231955198e-03       4.455933192805e+03 
       5.416189135831e-03       5.321933886949e+03 
       6.818578138182e-03       6.282331665531e+03 
       8.584081290461e-03       7.285773934429e+03 
       1.080671807347e-02       8.261729500688e+03 
       1.360485200078e-02       9.103472453143e+03 
       1.712749390673e-02       9.669185416392e+03 
       2.156223523046e-02       9.805255062364e+03 
       2.714441594976e-02       9.412495730854e+03 
       3.410589876826e-02       8.562081967848e+03 
       4.165112454130e-02       7.653422395109e+03 
       4.730617884838e-02       7.106379958915e+03 
       5.159882749610e-02       6.766664422224e+03 
       5.526205649629e-02       6.512344157108e+03 
       5.859320287913e-02       6.296399429434e+03 
       6.173383284031e-02       6.096650416135e+03 
       6.476264830451e-02       5.901173332963e+03 
       6.772853866512e-02       5.703417007821e+03 
       7.066449190895e-02       5.500235417380e+03 
       7.359426115389e-02       5.290938326022e+03 
       7.653588662223e-02       5.076714037306e+03 
       7.950370127738e-02       4.860169623001e+03 
       8.250954265279e-02       4.644885450790e+03 
       8.556352087132e-02       4.434949980280e+03 
       8.867452479996e-02       4.234477984725e+03 
       9.185056656813e-02       4.047137270285e+03 
       9.509902240467e-02       3.875716355078e+03 
       9.842680471358e-02       3.721768457732e+03 
       1.018404871931e-01       3.585363647611e+03 
       1.053463970483e-01       3.464980548275e+03 
       1.089506836167e-01       3.357569379139e+03 
       1.126593697558e-01       3.258819937416e+03 
       1.164783904422e-01       3.163659552344e+03 
       1.204136217893e-01       3.066975263552e+03 
       1.244709028696e-01       2.964491460495e+03 
       1.286560521833e-01       2.853650374353e+03 
       1.329748802530e-01       2.734268867402e+03 
       1.374331995792e-01       2.608730673839e+03 
       1.420368330393e-01       2.481560868432e+03 
       1.467916217061e-01       2.358407608332e+03 
       1.517034330000e-01       2.244657920983e+03 
       1.567781700494e-01       2.144048850790e+03 
       1.620217831062e-01       2.057646098744e+03 
       1.674402838502e-01       1.983478920600e+03 
       1.730397634027e-01       1.916998721802e+03 
       1.788264148640e-01       1.852377354355e+03 
       1.848065611873e-01       1.784410201837e+03 
       1.909866892072e-01       1.710430462246e+03 
       1.973734906587e-01       1.631380499992e+03 
       2.039739110633e-01       1.551369022124e+03 
       2.107952074236e-01       1.475760223786e+03 
       2.178450157776e-01       1.408671109334e+03 
       2.251314298266e-01       1.351095417019e+03 
       2.326630920836e-01       1.300557879488e+03 
       2.404492993148e-01       1.252518321800e+03 
       2.485001244944e-01       1.202925673430e+03 
       2.568265580850e-01       1.150533034507e+03 
       2.654406722519e-01       1.097414954092e+03 
       2.743558126664e-01       1.047212388995e+03 
       2.835868239403e-01       1.002375730360e+03 
       2.931503165721e-01       9.624812860831e+02 
       3.030649857454e-01       9.248526711993e+02 
       3.133519956225e-01       8.869493019465e+02 
       3.240354472896e-01       8.484683434798e+02 
       3.351429547132e-01       8.111969214248e+02 
       3.467063617523e-01       7.768330193575e+02 
       3.587626455794e-01       7.451722738571e+02 
       3.713550696152e-01       7.146063515038e+02 
       3.845346751310e-01       6.841783712844e+02 
       3.983622396196e-01       6.545232059332e+02 
       4.129108895290e-01       6.265364567601e+02 
       4.282696478934e-01       5.999167803636e+02 
       4.445483463472e-01       5.738105653160e+02 
       4.618845765208e-01       5.482071377005e+02 
       4.804537734312e-01       5.235100791663e+02 
       5.004842594271e-01       4.994283530668e+02 
       5.222804270698e-01       4.755820259670e+02 
       5.462598300111e-01       4.520414045531e+02 
       5.730151864125e-01       4.285501646846e+02 
       6.034235176017e-01       4.047920847284e+02 
       6.388503074798e-01       3.804521655820e+02 
       6.815595145587e-01       3.549499548249e+02 
       7.356045921374e-01       3.274413809529e+02 
       8.089073880445e-01       2.965451756469e+02 
       9.180423023734e-01       2.601718819344e+02 
       1.094325941268e+00       2.167673966438e+02 
       1.362840112584e+00       1.710559018398e+02 
       1.714949818793e+00       1.306912663924e+02 
       2.158985553493e+00       9.663678878377e+01 
       2.718001760824e+00       6.869632858287e+01 
       3.421761485999e+00       4.688986611417e+01 
       4.307742487822e+00       3.086054873465e+01 
       5.423126485385e+00       1.971253161451e+01 
       6.827311743825e+00       1.230042596932e+01 
       8.595076248542e+00       7.540257222658e+00 
       1.082055990560e+01       4.561624490169e+00 
