# Matter power spectrum P(k) at redshift z=0
# for k=2.35008e-07 to 11.791 h/Mpc,
# number of wavenumbers equal to 139
#    1:k (h/Mpc)              2:P (Mpc/h)^3        
       2.350080358829e-07       5.788912566715e-01 
       2.958575883489e-07       7.261510839288e-01 
       3.724626362445e-07       9.108712395366e-01 
       4.689026777121e-07       1.142580976489e+00 
       5.903134966300e-07       1.433233623001e+00 
       7.431606618326e-07       1.797823224627e+00 
       9.355838422269e-07       2.255158048540e+00 
       1.177830273843e-06       2.828830853662e+00 
       1.482800462522e-06       3.548435978661e+00 
       1.866735182889e-06       4.451096033245e+00 
       2.350080358829e-06       5.583376946492e+00 
       2.958575883489e-06       7.003690158631e+00 
       3.724626362445e-06       8.785305864933e+00 
       4.689026777121e-06       1.102013272905e+01 
       5.903134966300e-06       1.382345899593e+01 
       7.431606618326e-06       1.733989947630e+01 
       9.355838422269e-06       2.175085497087e+01 
       1.177830273843e-05       2.728386850986e+01 
       1.482800462522e-05       3.422436019691e+01 
       1.866735182889e-05       4.293034430250e+01 
       2.350080358829e-05       5.385088436747e+01 
       2.958575883489e-05       6.754923153807e+01 
       3.724626362445e-05       8.473182617605e+01 
       4.689026777121e-05       1.062846319069e+02 
       5.903134966300e-05       1.333186230178e+02 
       7.431606618326e-05       1.672266660522e+02 
       9.355838422269e-05       2.097545212921e+02 
       1.177830273843e-04       2.630892171233e+02 
       1.482800462522e-04       3.299685570425e+02 
       1.866735182889e-04       4.138158670948e+02 
       2.350080358829e-04       5.189040144749e+02 
       2.958575883489e-04       6.505517761968e+02 
       3.724626362445e-04       8.153531876082e+02 
       4.689026777121e-04       1.021435992846e+03 
       5.903134966300e-04       1.278738809944e+03 
       7.431606618326e-04       1.599288610587e+03 
       9.355838422269e-04       1.997445985448e+03 
       1.177830273843e-03       2.490042259342e+03 
       1.482800462522e-03       3.096240011276e+03 
       1.866735182889e-03       3.836901252079e+03 
       2.350080358829e-03       4.733262673629e+03 
       2.958575883489e-03       5.804531544351e+03 
       3.724626362445e-03       7.064075513510e+03 
       4.689026777121e-03       8.513968226918e+03 
       5.903134966300e-03       1.008214413397e+04 
       7.431606618326e-03       1.180944033555e+04 
       9.355838422269e-03       1.357557946028e+04 
       1.177830273843e-02       1.525215746518e+04 
       1.482800462522e-02       1.666263331642e+04 
       1.866735182872e-02       1.759257695592e+04 
       2.350080288600e-02       1.782803032067e+04 
       2.958537839396e-02       1.724029056122e+04 
       3.720634963510e-02       1.591588775346e+04 
       4.586183073606e-02       1.434813081511e+04 
       5.268149840054e-02       1.328286801503e+04 
       5.773524046701e-02       1.259511574749e+04 
       6.198080647905e-02       1.206454981736e+04 
       6.580902269781e-02       1.160832763749e+04 
       6.940015061241e-02       1.119016404518e+04 
       7.285210291281e-02       1.079208300035e+04 
       7.622468956258e-02       1.040507027337e+04 
       7.955775305411e-02       1.002526532638e+04 
       8.287968851434e-02       9.652073956399e+03 
       8.621187776113e-02       9.287021499932e+03 
       8.957118495790e-02       8.932908661626e+03 
       9.297145050825e-02       8.593100383131e+03 
       9.642443068753e-02       8.270890816891e+03 
       9.994041304592e-02       7.968941316667e+03 
       1.035286331327e-01       7.688811710813e+03 
       1.071975645724e-01       7.430618011279e+03 
       1.109551256064e-01       7.192852959037e+03 
       1.148088288612e-01       6.972406522057e+03 
       1.187658915009e-01       6.764818772988e+03 
       1.228333170866e-01       6.564780435390e+03 
       1.270179568237e-01       6.366861702693e+03 
       1.313265555503e-01       6.166392365970e+03 
       1.357657863088e-01       5.960343990199e+03 
       1.403422763408e-01       5.748004752930e+03 
       1.450626266840e-01       5.531226282386e+03 
       1.499334271077e-01       5.314090499323e+03 
       1.549612678292e-01       5.101992929859e+03 
       1.601527492617e-01       4.900321473395e+03 
       1.655144909177e-01       4.713057016270e+03 
       1.710531405173e-01       4.541679923640e+03 
       1.767753842956e-01       4.384717419266e+03 
       1.826879594761e-01       4.238133322240e+03 
       1.887976698587e-01       4.096550508624e+03 
       1.951114054515e-01       3.955016038091e+03 
       2.016361670751e-01       3.810726720722e+03 
       2.083790968575e-01       3.663993129821e+03 
       2.153475155469e-01       3.517926642985e+03 
       2.225489675855e-01       3.376901179986e+03 
       2.299912749277e-01       3.244482236309e+03 
       2.376826006552e-01       3.121827690377e+03 
       2.456315235550e-01       3.007347890495e+03 
       2.538471250008e-01       2.897783830822e+03 
       2.623390897241e-01       2.790108884780e+03 
       2.711178224151e-01       2.683146566304e+03 
       2.801945825697e-01       2.577907864333e+03 
       2.895816406426e-01       2.476486626035e+03 
       2.992924594228e-01       2.380380956808e+03 
       3.093419056814e-01       2.289495105633e+03 
       3.197464986367e-01       2.202479341336e+03 
       3.305247037708e-01       2.117971173691e+03 
       3.416972831780e-01       2.035598803362e+03 
       3.532877171855e-01       1.955917711934e+03 
       3.653227168293e-01       1.879524533126e+03 
       3.778328534201e-01       1.806357587278e+03 
       3.908533407164e-01       1.735846329598e+03 
       4.044250183462e-01       1.667553474614e+03 
       4.185956039921e-01       1.601468777471e+03 
       4.334213094559e-01       1.537700069084e+03 
       4.489689568601e-01       1.476120862567e+03 
       4.653187938366e-01       1.416452655190e+03 
       4.825683039431e-01       1.358519551805e+03 
       5.008374639200e-01       1.302230526349e+03 
       5.202761541863e-01       1.247413724160e+03 
       5.410748599027e-01       1.193832467853e+03 
       5.634805544650e-01       1.141264673156e+03 
       5.878210311707e-01       1.089449972336e+03 
       6.145435639170e-01       1.038048602848e+03 
       6.442790131524e-01       9.866421111426e+02 
       6.779535924324e-01       9.346707010233e+02 
       7.169956044807e-01       8.813430862158e+02 
       7.637452668726e-01       8.254739750535e+02 
       8.223330656964e-01       7.651665403259e+02 
       9.007088217000e-01       6.972170695764e+02 
       1.015393122494e+00       6.162189787761e+02 
       1.199063122842e+00       5.153695272131e+02 
       1.485702797666e+00       3.992400669257e+02 
       1.868769166310e+00       2.909190308838e+02 
       2.352617774517e+00       2.020912009100e+02 
       2.961770238469e+00       1.349356309922e+02 
       3.728647817082e+00       8.738493881483e+01 
       4.694089488555e+00       5.532831499812e+01 
       5.909508542378e+00       3.446778815369e+01 
       7.439630475215e+00       2.122713075311e+01 
       9.365939859606e+00       1.296763408551e+01 
       1.179101969459e+01       7.877059445471e+00 
