# Matter power spectrum P(k) at redshift z=1
# for k=2.2963e-07 to 11.5242 h/Mpc,
# number of wavenumbers equal to 139
#    1:k (h/Mpc)              2:P (Mpc/h)^3        
       2.296296140743e-07       4.472602220483e-01 
       2.890865564586e-07       5.553288994742e-01 
       3.639384121338e-07       6.895095322424e-01 
       4.581713153633e-07       8.561113880823e-01 
       5.768035118660e-07       1.062968202944e+00 
       7.261525987002e-07       1.319806528954e+00 
       9.141719593440e-07       1.638703083153e+00 
       1.150874310368e-06       2.034652602436e+00 
       1.448864915103e-06       2.526272904949e+00 
       1.824012859880e-06       3.136680309892e+00 
       2.296296140743e-06       3.894576576435e+00 
       2.890865564586e-06       4.835598467958e+00 
       3.639384121338e-06       6.003993393128e+00 
       4.581713153633e-06       7.454699900957e+00 
       5.768035118660e-06       9.255930834143e+00 
       7.261525987002e-06       1.149238055364e+01 
       9.141719593440e-06       1.426920695535e+01 
       1.150874310368e-05       1.771697533379e+01 
       1.448864915103e-05       2.199779620702e+01 
       1.824012859880e-05       2.731294502122e+01 
       2.296296140743e-05       3.391232066907e+01 
       2.890865564586e-05       4.210618489885e+01 
       3.639384121338e-05       5.227972937564e+01 
       4.581713153633e-05       6.491114506536e+01 
       5.768035118660e-05       8.059402336507e+01 
       7.261525987002e-05       1.000651026346e+02 
       9.141719593440e-05       1.242385871891e+02 
       1.150874310368e-04       1.542485007246e+02 
       1.448864915103e-04       1.915007709150e+02 
       1.824012859880e-04       2.377369248472e+02 
       2.296296140743e-04       2.951113034099e+02 
       2.890865564586e-04       3.662833862192e+02 
       3.639384121338e-04       4.545258489109e+02 
       4.581713153633e-04       5.638469421910e+02 
       5.768035118660e-04       6.991223700739e+02 
       7.261525987002e-04       8.662273031602e+02 
       9.141719593440e-04       1.072154455961e+03 
       1.150874310368e-03       1.325097508216e+03 
       1.448864915103e-03       1.634455052538e+03 
       1.824012859880e-03       2.010646322144e+03 
       2.296296140743e-03       2.464586142499e+03 
       2.890865564586e-03       3.006716095501e+03 
       3.639384121338e-03       3.645391826198e+03 
       4.581713153633e-03       4.384438415124e+03 
       5.768035118660e-03       5.201176908080e+03 
       7.261525987002e-03       6.106275692836e+03 
       9.141719593440e-03       7.050272667673e+03 
       1.150874310368e-02       7.970097233614e+03 
       1.448864915103e-02       8.771449524400e+03 
       1.824012859744e-02       9.330256415132e+03 
       2.296295808704e-02       9.512691486220e+03 
       2.890746545626e-02       9.230057152726e+03 
       3.630477168053e-02       8.534786124701e+03 
       4.416964050359e-02       7.765734694648e+03 
       4.998547219420e-02       7.281394883710e+03 
       5.443847504569e-02       6.961647576672e+03 
       5.825800645232e-02       6.712093685447e+03 
       6.174095377016e-02       6.495255067435e+03 
       6.503021542214e-02       6.293192303152e+03 
       6.820585957905e-02       6.096233501680e+03 
       7.131790884535e-02       5.899084416555e+03 
       7.440026405790e-02       5.699221284578e+03 
       7.747742204134e-02       5.496097373880e+03 
       8.056804287574e-02       5.290656000848e+03 
       8.368698947287e-02       5.084945629199e+03 
       8.684656386075e-02       4.881753887640e+03 
       9.005729274543e-02       4.684231669485e+03 
       9.332844633788e-02       4.495506698913e+03 
       9.666839212468e-02       4.318304984593e+03 
       1.000848425343e-01       4.154605735559e+03 
       1.035850321023e-01       4.005359171889e+03 
       1.071758464114e-01       3.870297948813e+03 
       1.108639171865e-01       3.747872126987e+03 
       1.146556930984e-01       3.635338912724e+03 
       1.185574927978e-01       3.529032511074e+03 
       1.225755447546e-01       3.424825116054e+03 
       1.267160172077e-01       3.318756422895e+03 
       1.309850406911e-01       3.207752945927e+03 
       1.353887250404e-01       3.090296410914e+03 
       1.399331724159e-01       2.966855649614e+03 
       1.446244876283e-01       2.839907576535e+03 
       1.494687868930e-01       2.713459959336e+03 
       1.544722060360e-01       2.592133619956e+03 
       1.596409091072e-01       2.480012873497e+03 
       1.649810983161e-01       2.379562142141e+03 
       1.704990261812e-01       2.290909716213e+03 
       1.762010107645e-01       2.211731733528e+03 
       1.820934548550e-01       2.137854088450e+03 
       1.881828699541e-01       2.064519745689e+03 
       1.944759059181e-01       1.988014994932e+03 
       2.009793871168e-01       1.907071520516e+03 
       2.077003559886e-01       1.823367540718e+03 
       2.146461249147e-01       1.740753522990e+03 
       2.218243374085e-01       1.663461623081e+03 
       2.292430397314e-01       1.594133228482e+03 
       2.369107642228e-01       1.532627221473e+03 
       2.448366258815e-01       1.476214776031e+03 
       2.530304340864e-01       1.421127810031e+03 
       2.615028218181e-01       1.364703330630e+03 
       2.702653953815e-01       1.306854362993e+03 
       2.793309084776e-01       1.249835978030e+03 
       2.887134655894e-01       1.196423553501e+03 
       2.984287611308e-01       1.147850452638e+03 
       3.084943627716e-01       1.103051107713e+03 
       3.189300499796e-01       1.059743738425e+03 
       3.297582223586e-01       1.016418626269e+03 
       3.410043971854e-01       9.734622440439e+02 
       3.526978222033e-01       9.323871017144e+02 
       3.648722390363e-01       8.940519157123e+02 
       3.775668458023e-01       8.578183043053e+02 
       3.908275265785e-01       8.224819463997e+02 
       4.047084433858e-01       7.877126119311e+02 
       4.192741283136e-01       7.541442354567e+02 
       4.346022775526e-01       7.221596395542e+02 
       4.507875494853e-01       6.912883059635e+02 
       4.679468301061e-01       6.610335614308e+02 
       4.862266951073e-01       6.315226626815e+02 
       5.058142514612e-01       6.028714390483e+02 
       5.269533423329e-01       5.747454458368e+02 
       5.499695721385e-01       5.469404395005e+02 
       5.753104439663e-01       5.194022116379e+02 
       6.036126509074e-01       4.918189210225e+02 
       6.358209288137e-01       4.638910675973e+02 
       6.734112848707e-01       4.351833934247e+02 
       7.188413875769e-01       4.050352602378e+02 
       7.765340929722e-01       3.724184614628e+02 
       8.551791955759e-01       3.356743693350e+02 
       9.729843145416e-01       2.923278399115e+02 
       1.163651880160e+00       2.408024942208e+02 
       1.451325951624e+00       1.872842966687e+02 
       1.826473764109e+00       1.404221364354e+02 
       2.299387911357e+00       1.013064755998e+02 
       2.894757862286e+00       7.002961607741e+01 
       3.644284233821e+00       4.652938488479e+01 
       4.587882029758e+00       2.992753684846e+01 
       5.775801273576e+00       1.877336882555e+01 
       7.271302996778e+00       1.155878216975e+01 
       9.154028119499e+00       7.020601074377e+00 
       1.152423861992e+01       4.222628715213e+00 
