# Matter power spectrum P(k) at redshift z=1
# for k=1.83324e-07 to 11.5806 h/Mpc,
# number of wavenumbers equal to 140
#    1:k (h/Mpc)              2:P (Mpc/h)^3        
       1.833243598470e-07       5.440445095581e-01 
       2.307916952122e-07       6.815919170661e-01 
       2.905495299338e-07       8.539145843329e-01 
       3.657801866184e-07       1.069804524987e+00 
       4.604899720648e-07       1.340276582400e+00 
       5.797225277087e-07       1.679130414094e+00 
       7.298274219221e-07       2.103654558260e+00 
       9.187982876819e-07       2.635508504440e+00 
       1.156698512676e-06       3.301827771307e+00 
       1.456197151392e-06       4.136608372143e+00 
       1.833243598470e-06       5.182441300531e+00 
       2.307916952122e-06       6.492685523030e+00 
       2.905495299338e-06       8.134190339965e+00 
       3.657801866184e-06       1.019070597501e+01 
       4.604899720648e-06       1.276715636542e+01 
       5.797225277087e-06       1.599499204795e+01 
       7.298274219221e-06       2.003889605499e+01 
       9.187982876819e-06       2.510518456263e+01 
       1.156698512676e-05       3.145233014679e+01 
       1.456197151392e-05       3.940414297581e+01 
       1.833243598470e-05       4.936627945175e+01 
       2.307916952122e-05       6.184691449343e+01 
       2.905495299338e-05       7.748262020559e+01 
       3.657801866184e-05       9.707074746875e+01 
       4.604899720648e-05       1.216099154701e+02 
       5.797225277087e-05       1.523505816052e+02 
       7.298274219221e-05       1.908580877616e+02 
       9.187982876819e-05       2.390910366194e+02 
       1.156698512676e-04       2.994982861022e+02 
       1.456197151392e-04       3.751381284700e+02 
       1.833243598470e-04       4.698230809388e+02 
       2.307916952122e-04       5.882926780866e+02 
       2.905495299338e-04       7.364139640893e+02 
       3.657801866184e-04       9.214040815360e+02 
       4.604899720648e-04       1.152060890890e+03 
       5.797225277087e-04       1.438977102145e+03 
       7.298274219221e-04       1.794703951371e+03 
       9.187982876819e-04       2.233816463417e+03 
       1.156698512676e-03       2.772771842607e+03 
       1.456197151392e-03       3.429302782265e+03 
       1.833243598470e-03       4.221035630982e+03 
       2.307916952122e-03       5.163164229279e+03 
       2.905495299338e-03       6.264875071850e+03 
       3.657801866184e-03       7.524217911774e+03 
       4.604899720648e-03       8.920893754961e+03 
       5.797225277087e-03       1.040729328499e+04 
       7.298274219221e-03       1.189793464775e+04 
       9.187982876819e-03       1.325850269982e+04 
       1.156698512676e-02       1.429882834386e+04 
       1.456197151361e-02       1.478188049305e+04 
       1.833243495627e-02       1.447488739210e+04 
       2.307869667332e-02       1.327667703739e+04 
       2.901155793392e-02       1.141726344846e+04 
       3.559482522582e-02       9.665141179395e+03 
       4.063612400613e-02       8.715523531135e+03 
       4.441907278239e-02       8.192656033749e+03 
       4.762426528073e-02       7.833851201447e+03 
       5.052762032214e-02       7.544636970984e+03 
       5.325857309434e-02       7.282195487977e+03 
       5.588831041075e-02       7.023993122884e+03 
       5.846070947187e-02       6.757831817037e+03 
       6.100519998216e-02       6.477997618975e+03 
       6.354287138540e-02       6.183449856276e+03 
       6.608967685541e-02       5.876721168428e+03 
       6.865824792891e-02       5.563024552153e+03 
       7.125898616423e-02       5.249372637930e+03 
       7.390075255592e-02       4.943661933786e+03 
       7.659132056417e-02       4.653746526561e+03 
       7.933768373105e-02       4.386562035866e+03 
       8.214627029439e-02       4.147366883009e+03 
       8.502309628013e-02       3.939153957649e+03 
       8.797387667637e-02       3.762265848031e+03 
       9.100410729040e-02       3.614233772389e+03 
       9.411912562697e-02       3.489869402045e+03 
       9.732415645797e-02       3.381663237618e+03 
       1.006243460461e-01       3.280559040588e+03 
       1.040247878724e-01       3.177145811768e+03 
       1.075305419829e-01       3.063199980974e+03 
       1.111466495813e-01       2.933333251389e+03 
       1.148781441702e-01       2.786323417854e+03 
       1.187300603246e-01       2.625641658770e+03 
       1.227074410449e-01       2.458839213357e+03 
       1.268153445404e-01       2.295806936314e+03 
       1.310588512384e-01       2.146332492987e+03 
       1.354430717799e-01       2.017631745827e+03 
       1.399731567355e-01       1.912507797671e+03 
       1.446543087656e-01       1.828574837887e+03 
       1.494917979360e-01       1.758773336866e+03 
       1.544909808947e-01       1.693259214705e+03 
       1.596573246140e-01       1.622467702941e+03 
       1.649964354056e-01       1.540545757584e+03 
       1.705140939310e-01       1.447697230018e+03 
       1.762162969634e-01       1.350036248403e+03 
       1.821093067098e-01       1.256701830508e+03 
       1.881997085954e-01       1.175577581653e+03 
       1.944944785483e-01       1.109738372617e+03 
       2.010010610172e-01       1.056260341149e+03 
       2.077274592339e-01       1.007935371243e+03 
       2.146823396047e-01       9.572587947108e+02 
       2.218751526209e-01       9.007299951979e+02 
       2.293162733504e-01       8.406934160218e+02 
       2.370171654577e-01       7.831908652099e+02 
       2.449905738770e-01       7.333352221048e+02 
       2.532507528158e-01       6.917112281091e+02 
       2.618137378484e-01       6.544156378106e+02 
       2.706976736502e-01       6.166125864712e+02 
       2.799232127341e-01       5.766761762865e+02 
       2.895140057811e-01       5.371175880780e+02 
       2.994973114765e-01       5.014054427278e+02 
       3.099047641165e-01       4.701732032834e+02 
       3.207733521683e-01       4.409403543714e+02 
       3.321466828186e-01       4.114300122368e+02 
       3.440766401732e-01       3.822130860401e+02 
       3.566255945101e-01       3.552175651292e+02 
       3.698693975527e-01       3.305667066568e+02 
       3.839015227613e-01       3.067005172271e+02 
       3.988389135911e-01       2.832050705354e+02 
       4.148304486390e-01       2.610387888051e+02 
       4.320695404543e-01       2.401120471653e+02 
       4.508134958147e-01       2.196409335115e+02 
       4.714143893001e-01       1.998850734312e+02 
       4.943704753249e-01       1.808058312770e+02 
       5.204162742770e-01       1.620112491780e+02 
       5.506901940839e-01       1.435068289694e+02 
       5.870690972343e-01       1.249418225809e+02 
       6.328906396998e-01       1.060359140674e+02 
       6.946310857295e-01       8.635776834546e+01 
       7.858031448654e-01       6.557536457832e+01 
       9.325524039058e-01       4.448206642308e+01 
       1.158780975347e+00       2.694091027170e+01 
       1.457924957114e+00       1.569595658668e+01 
       1.835407668342e+00       9.046349870923e+00 
       2.310641329604e+00       5.169829697612e+00 
       2.908925087373e+00       2.931923887240e+00 
       3.662119713500e+00       1.651241121993e+00 
       4.610335568357e+00       9.241039395724e-01 
       5.804068603903e+00       5.141886042974e-01 
       7.306889457250e+00       2.845938869898e-01 
       9.198828818903e+00       1.567524994287e-01 
       1.158063935886e+01       8.595067785593e-02 
