# Matter power spectrum P(k) at redshift z=1.5
# for k=1.71564e-07 to 10.838 h/Mpc,
# number of wavenumbers equal to 140
#    1:k (h/Mpc)              2:P (Mpc/h)^3        
       1.715641364843e-07       3.677188296996e-01 
       2.159864511726e-07       4.617063725474e-01 
       2.719108319844e-07       5.797167756636e-01 
       3.423154561273e-07       7.278901911791e-01 
       4.309496265686e-07       9.139361700686e-01 
       5.425334360904e-07       1.147534794877e+00 
       6.830091294422e-07       1.440840338850e+00 
       8.598575495422e-07       1.809113658324e+00 
       1.082496519642e-06       2.271516219953e+00 
       1.362782376756e-06       2.852107077414e+00 
       1.715641364843e-06       3.581094660553e+00 
       2.159864511726e-06       4.496408508550e+00 
       2.719108319844e-06       5.645672706353e+00 
       3.423154561273e-06       7.088683673284e+00 
       4.309496265686e-06       8.900521164114e+00 
       5.425334360904e-06       1.117545423276e+01 
       6.830091294422e-06       1.403184515830e+01 
       8.598575495422e-06       1.761830599246e+01 
       1.082496519642e-05       2.212142715695e+01 
       1.362782376756e-05       2.777547832210e+01 
       1.715641364843e-05       3.487458260714e+01 
       2.159864511726e-05       4.378799017223e+01 
       2.719108319844e-05       5.497923121627e+01 
       3.423154561273e-05       6.903011579980e+01 
       4.309496265686e-05       8.667077130284e+01 
       5.425334360904e-05       1.088171657046e+02 
       6.830091294422e-05       1.366178416515e+02 
       8.598575495422e-05       1.715118445105e+02 
       1.082496519642e-04       2.152999774932e+02 
       1.362782376756e-04       2.702313740651e+02 
       1.715641364843e-04       3.391065860063e+02 
       2.159864511726e-04       4.253963092378e+02 
       2.719108319844e-04       5.333705087836e+02 
       3.423154561273e-04       6.682248342915e+02 
       4.309496265686e-04       8.361792942659e+02 
       5.425334360904e-04       1.044510739362e+03 
       6.830091294422e-04       1.301473997111e+03 
       8.598575495422e-04       1.616071288091e+03 
       1.082496519642e-03       1.997603495881e+03 
       1.362782376756e-03       2.454778722522e+03 
       1.715641364843e-03       2.994038149449e+03 
       2.159864511726e-03       3.617202348152e+03 
       2.719108319844e-03       4.318601117110e+03 
       3.423154561273e-03       5.081740900252e+03 
       4.309496265686e-03       5.875861433807e+03 
       5.425334360904e-03       6.650060922624e+03 
       6.830091294422e-03       7.344280998680e+03 
       8.598575495422e-03       7.874150724002e+03 
       1.082496519642e-02       8.146069253971e+03 
       1.362782376755e-02       8.066798464919e+03 
       1.715641361504e-02       7.569602615709e+03 
       2.159860877933e-02       6.662860248384e+03 
       2.718435383284e-02       5.491493319628e+03 
       3.394214700662e-02       4.372569984816e+03 
       4.010246725463e-02       3.693231466029e+03 
       4.451397996609e-02       3.354041039402e+03 
       4.807483620241e-02       3.133110812910e+03 
       5.121843254610e-02       2.958092377870e+03 
       5.413137573079e-02       2.802314657347e+03 
       5.690965147354e-02       2.654191195167e+03 
       5.960965190332e-02       2.508696370635e+03 
       6.226785823134e-02       2.364265402118e+03 
       6.490967353779e-02       2.221358685028e+03 
       6.755386361764e-02       2.081624378516e+03 
       7.021499067850e-02       1.947306336632e+03 
       7.290483967655e-02       1.820777924757e+03 
       7.563330024720e-02       1.704165212448e+03 
       7.840893627342e-02       1.599055520726e+03 
       8.123936712874e-02       1.506293748239e+03 
       8.413153052782e-02       1.425867314318e+03 
       8.709186822335e-02       1.356877207328e+03 
       9.012645982129e-02       1.297594692038e+03 
       9.324112073046e-02       1.245607127241e+03 
       9.644147470649e-02       1.198061474471e+03 
       9.973300801497e-02       1.152007272602e+03 
       1.031211100615e-01       1.104818224918e+03 
       1.066111039279e-01       1.054631414237e+03 
       1.102082693296e-01       1.000704174564e+03 
       1.139178598967e-01       9.435724532047e+02 
       1.177451162714e-01       8.849262453325e+02 
       1.216952762444e-01       8.271964723588e+02 
       1.257735829736e-01       7.729463615074e+02 
       1.299852922103e-01       7.242301946719e+02 
       1.343356793857e-01       6.820910447150e+02 
       1.388300473616e-01       6.463218466232e+02 
       1.434737356228e-01       6.155469274881e+02 
       1.482721316666e-01       5.876210654371e+02 
       1.532306853364e-01       5.602757141899e+02 
       1.583549268355e-01       5.318458351913e+02 
       1.636504891541e-01       5.018140018540e+02 
       1.691231356431e-01       4.709119742168e+02 
       1.747787934780e-01       4.406944159197e+02 
       1.806235937802e-01       4.127729827430e+02 
       1.866639192091e-01       3.880833134639e+02 
       1.929064599136e-01       3.665275192077e+02 
       1.993582788513e-01       3.471353707632e+02 
       2.060268876555e-01       3.286428038381e+02 
       2.129203344780e-01       3.101784727921e+02 
       2.200473055762e-01       2.916643966270e+02 
       2.274172428686e-01       2.736891341548e+02 
       2.350404803000e-01       2.569710765605e+02 
       2.429284026671e-01       2.418214729238e+02 
       2.510936316295e-01       2.279859154772e+02 
       2.595502450539e-01       2.149279478043e+02 
       2.683140377299e-01       2.022770005460e+02 
       2.774028340288e-01       1.900521234868e+02 
       2.868368665103e-01       1.785011072076e+02 
       2.966392391762e-01       1.677698987412e+02 
       3.068365005838e-01       1.577548116324e+02 
       3.174593611978e-01       1.482489761985e+02 
       3.285436024496e-01       1.391605915617e+02 
       3.401312440055e-01       1.305375478014e+02 
       3.522720638982e-01       1.224168327595e+02 
       3.650256086867e-01       1.147388337236e+02 
       3.784638963840e-01       1.074246889323e+02 
       3.926751185177e-01       1.004549279169e+02 
       4.077688158371e-01       9.382701856153e+01 
       4.238832832400e-01       8.750273561785e+01 
       4.411964451127e-01       8.144031891843e+01 
       4.599423133368e-01       7.561619106990e+01 
       4.804367701916e-01       6.999709545973e+01 
       5.031196188513e-01       6.454092369111e+01 
       5.286264816706e-01       5.920542253049e+01 
       5.579187693018e-01       5.393589285364e+01 
       5.925345209278e-01       4.866262463303e+01 
       6.351103867895e-01       4.329119702213e+01 
       6.905570821404e-01       3.768938913914e+01 
       7.688422275209e-01       3.168141042020e+01 
       8.906898361033e-01       2.516646450448e+01 
       1.087200373703e+00       1.868261128933e+01 
       1.364506702131e+00       1.354105173197e+01 
       1.717706086920e+00       9.916602590775e+00 
       2.162463296199e+00       7.322700752944e+00 
       2.722379995232e+00       5.413768578416e+00 
       3.427273356557e+00       3.978316820379e+00 
       4.314681521735e+00       2.886216895322e+00 
       5.431862211511e+00       2.055231372681e+00 
       6.838309371436e+00       1.430081671247e+00 
       8.608921441410e+00       9.696078730658e-01 
       1.083798997073e+01       6.397598434312e-01 
