# Matter power spectrum P(k) at redshift z=1.5
# for k=2.16491e-07 to 10.8618 h/Mpc,
# number of wavenumbers equal to 139
#    1:k (h/Mpc)              2:P (Mpc/h)^3        
       2.164914427289e-07       2.304651475641e-01 
       2.725465786874e-07       2.871013651588e-01 
       3.431158138071e-07       3.576557874715e-01 
       4.319572171902e-07       4.455487774747e-01 
       5.438019175287e-07       5.550412432548e-01 
       6.846060529593e-07       6.914411998287e-01 
       8.618679571385e-07       8.613610926113e-01 
       1.085027472853e-06       1.073038357262e+00 
       1.365968658069e-06       1.336734755469e+00 
       1.719652655358e-06       1.665233845844e+00 
       2.164914427289e-06       2.074460704049e+00 
       2.725465786874e-06       2.584253932787e+00 
       3.431158138071e-06       3.219327382987e+00 
       4.319572171902e-06       4.010468196837e+00 
       5.438019175287e-06       4.996029230731e+00 
       6.846060529592e-06       6.223788167702e+00 
       8.618679571385e-06       7.753263362035e+00 
       1.085027472853e-05       9.658598522614e+00 
       1.365968658069e-05       1.203215575580e+01 
       1.719652655358e-05       1.498899052344e+01 
       2.164914427289e-05       1.867242418593e+01 
       2.725465786874e-05       2.326098182597e+01 
       3.431158138071e-05       2.897702678000e+01 
       4.319572171902e-05       3.609750085277e+01 
       5.438019175287e-05       4.496727189051e+01 
       6.846060529593e-05       5.601569842710e+01 
       8.618679571385e-05       6.977714097654e+01 
       1.085027472853e-04       8.691627035222e+01 
       1.365968658069e-04       1.082591189158e+02 
       1.719652655358e-04       1.348308350881e+02 
       2.164914427289e-04       1.679009260348e+02 
       2.725465786874e-04       2.090362098972e+02 
       3.431158138071e-04       2.601604257375e+02 
       4.319572171902e-04       3.236170345522e+02 
       5.438019175287e-04       4.022278630625e+02 
       6.846060529593e-04       4.993353178952e+02 
       8.618679571385e-04       6.188119741244e+02 
       1.085027472853e-03       7.650202778168e+02 
       1.365968658069e-03       9.426966692285e+02 
       1.719652655358e-03       1.156685013486e+03 
       2.164914427289e-03       1.411378196498e+03 
       2.725465786874e-03       1.709823988940e+03 
       3.431158138071e-03       2.052519878888e+03 
       4.319572171902e-03       2.435822672477e+03 
       5.438019175287e-03       2.849998860366e+03 
       6.846060529593e-03       3.274308960666e+03 
       8.618679571385e-03       3.685191772879e+03 
       1.085027472853e-02       4.041075281518e+03 
       1.365968658069e-02       4.291010149099e+03 
       1.719652655356e-02       4.376700505903e+03 
       2.164914416022e-02       4.245170965554e+03 
       2.725456225954e-02       3.876547847416e+03 
       3.429712430375e-02       3.325286576344e+03 
       4.267503484453e-02       2.760421405386e+03 
       4.991059773016e-02       2.411719567299e+03 
       5.513014173503e-02       2.227185262044e+03 
       5.940659695028e-02       2.102973752601e+03 
       6.321180965592e-02       2.003667424464e+03 
       6.675378433488e-02       1.915082855708e+03 
       7.014164149346e-02       1.830516786948e+03 
       7.344039654586e-02       1.746700603752e+03 
       7.669255266501e-02       1.662291516006e+03 
       7.992795176813e-02       1.577172639497e+03 
       8.316878894854e-02       1.492044761157e+03 
       8.643238683229e-02       1.408128710086e+03 
       8.973283386357e-02       1.326912672851e+03 
       9.308200346671e-02       1.249924766889e+03 
       9.649021552853e-02       1.178531264097e+03 
       9.996668099014e-02       1.113767710833e+03 
       1.035198094177e-01       1.056211386502e+03 
       1.071574268991e-01       1.005901235911e+03 
       1.108869334136e-01       9.623093685505e+02 
       1.147154182210e-01       9.243687012302e+02 
       1.186497454271e-01       8.905636223881e+02 
       1.226966179195e-01       8.590901572318e+02 
       1.268626253462e-01       8.280866867358e+02 
       1.311542801789e-01       7.959180220506e+02 
       1.355780448263e-01       7.614694302066e+02 
       1.401403520517e-01       7.243807173007e+02 
       1.448476204745e-01       6.851426507478e+02 
       1.497062666183e-01       6.450004410580e+02 
       1.547227147613e-01       6.056632353690e+02 
       1.599034057099e-01       5.688837727823e+02 
       1.652548055292e-01       5.360189367783e+02 
       1.707834152119e-01       5.076881843723e+02 
       1.764957822319e-01       4.836173099289e+02 
       1.823985149084e-01       4.627131219926e+02 
       1.884983004913e-01       4.433723116034e+02 
       1.948019278716e-01       4.239732812895e+02 
       2.013163158111e-01       4.034176095820e+02 
       2.080485475943e-01       3.815126147793e+02 
       2.150059130128e-01       3.589981763708e+02 
       2.221959586294e-01       3.371691320646e+02 
       2.296265473275e-01       3.172590505329e+02 
       2.373059282484e-01       2.998835136079e+02 
       2.452428183772e-01       2.848042203608e+02 
       2.534464972535e-01       2.711158441624e+02 
       2.619269166053e-01       2.577629814611e+02 
       2.706948271326e-01       2.441182825480e+02 
       2.797619252526e-01       2.302777946021e+02 
       2.891410233980e-01       2.168773887897e+02 
       2.988462484891e-01       2.045696787301e+02 
       3.088932745667e-01       1.935537512167e+02 
       3.192995973756e-01       1.834929191990e+02 
       3.300848610937e-01       1.738468900091e+02 
       3.412712506298e-01       1.643207094383e+02 
       3.528839672810e-01       1.550384826361e+02 
       3.649518115387e-01       1.463100752173e+02 
       3.775079051601e-01       1.382645366489e+02 
       3.905905963639e-01       1.307390833461e+02 
       4.042446088164e-01       1.235023863743e+02 
       4.185225195636e-01       1.165068756762e+02 
       4.334866873812e-01       1.098612595277e+02 
       4.492118079936e-01       1.036104314114e+02 
       4.657883576794e-01       9.766278511770e+01 
       4.833273216341e-01       9.193790430162e+01 
       5.019668230892e-01       8.645145124754e+01 
       5.218816377647e-01       8.121120254500e+01 
       5.432972179839e-01       7.616328306178e+01 
       5.665110042018e-01       7.127486499754e+01 
       5.919259726692e-01       6.653357314472e+01 
       6.201056590252e-01       6.189737470940e+01 
       6.518688641124e-01       5.732642997877e+01 
       6.884621963587e-01       5.277145462173e+01 
       7.318961354196e-01       4.816297593611e+01 
       7.856515225478e-01       4.340439090733e+01 
       8.562854450950e-01       3.835230823572e+01 
       9.572305608686e-01       3.280901948165e+01 
       1.116100559183e+00       2.664340651578e+01 
       1.370242805543e+00       2.038014924335e+01 
       1.721538355838e+00       1.525312602757e+01 
       2.167215791162e+00       1.140590970603e+01 
       2.728362732808e+00       8.477450684160e+00 
       3.434805176746e+00       6.218778516810e+00 
       4.324163521567e+00       4.475741370391e+00 
       5.443799342054e+00       3.146139590711e+00 
       6.853337328420e+00       2.153355647418e+00 
       8.627840518346e+00       1.432746404462e+00 
       1.086180767745e+01       9.267098434689e-01 
