# Matter power spectrum P(k) at redshift z=2.5
# for k=2.12519e-07 to 10.6631 h/Mpc,
# number of wavenumbers equal to 139
#    1:k (h/Mpc)              2:P (Mpc/h)^3        
       2.125194555907e-07       1.761775176280e-01 
       2.675461431437e-07       2.185649340024e-01 
       3.368206384312e-07       2.711505474408e-01 
       4.240320609378e-07       3.363879925545e-01 
       5.338247369300e-07       4.173212354724e-01 
       6.720455267655e-07       5.177266051650e-01 
       8.460551915277e-07       6.422889958595e-01 
       1.065120380395e-06       7.968204629226e-01 
       1.340907113499e-06       9.885314113050e-01 
       1.688102040039e-06       1.226367030889e+00 
       2.125194555907e-06       1.521424673683e+00 
       2.675461431437e-06       1.887471648783e+00 
       3.368206384312e-06       2.341587591572e+00 
       4.240320609378e-06       2.904961375434e+00 
       5.338247369300e-06       3.603879736563e+00 
       6.720455267655e-06       4.470953727829e+00 
       8.460551915277e-06       5.546640179657e+00 
       1.065120380395e-05       6.881129086697e+00 
       1.340907113499e-05       8.536684841493e+00 
       1.688102040039e-05       1.059055023191e+01 
       2.125194555907e-05       1.313854815704e+01 
       2.675461431437e-05       1.629954792015e+01 
       3.368206384312e-05       2.022100226154e+01 
       4.240320609378e-05       2.508580902187e+01 
       5.338247369300e-05       3.112080887928e+01 
       6.720455267655e-05       3.860729844739e+01 
       8.460551915277e-05       4.789401580608e+01 
       1.065120380395e-04       5.941313846362e+01 
       1.340907113499e-04       7.369991220296e+01 
       1.688102040039e-04       9.141657792209e+01 
       2.125194555907e-04       1.133812341883e+02 
       2.675461431437e-04       1.406020719488e+02 
       3.368206384312e-04       1.743168820007e+02 
       4.240320609378e-04       2.160366156433e+02 
       5.338247369300e-04       2.675897799292e+02 
       6.720455267655e-04       3.311614672099e+02 
       8.460551915277e-04       4.093174881305e+02 
       1.065120380395e-03       5.050021221158e+02 
       1.340907113499e-03       6.214971640610e+02 
       1.688102040039e-03       7.623168353345e+02 
       2.125194555907e-03       9.309643129921e+02 
       2.675461431437e-03       1.130448544539e+03 
       3.368206384312e-03       1.362575006871e+03 
       4.240320609378e-03       1.626961511584e+03 
       5.338247369300e-03       1.919636622163e+03 
       6.720455267655e-03       2.231283274904e+03 
       8.460551915277e-03       2.545198769268e+03 
       1.065120380395e-02       2.835142804511e+03 
       1.340907113499e-02       3.063901523699e+03 
       1.688102040016e-02       3.184694098705e+03 
       2.125194472728e-02       3.150127393601e+03 
       2.675419422978e-02       2.935204128733e+03 
       3.364043967129e-02       2.575020034695e+03 
       4.138760660502e-02       2.210810382422e+03 
       4.741497300609e-02       1.999399460627e+03 
       5.190505525144e-02       1.878733211967e+03 
       5.569102430843e-02       1.793663492042e+03 
       5.911156208046e-02       1.724206015244e+03 
       6.232401240346e-02       1.661391806749e+03 
       6.541429771069e-02       1.600538289447e+03 
       6.843510626508e-02       1.539108033880e+03 
       7.142163939351e-02       1.475874976023e+03 
       7.439904339451e-02       1.410534076382e+03 
       7.738629059843e-02       1.343470045266e+03 
       8.039836962149e-02       1.275579201389e+03 
       8.344759924185e-02       1.208101919150e+03 
       8.654445623177e-02       1.142452541272e+03 
       8.969811830918e-02       1.080048078504e+03 
       9.291683223295e-02       1.022145109962e+03 
       9.620817027751e-02       9.696955204686e+02 
       9.957921299295e-02       9.232317927305e+02 
       1.030366818124e-01       8.827903780183e+02 
       1.065870366286e-01       8.478794750239e+02 
       1.102365483319e-01       8.174992967486e+02 
       1.139913530928e-01       7.902253573650e+02 
       1.178574931259e-01       7.643641362164e+02 
       1.218409473327e-01       7.381833031392e+02 
       1.259476543438e-01       7.101982119513e+02 
       1.301835298942e-01       6.794672203638e+02 
       1.345544800739e-01       6.458201383795e+02 
       1.390664117403e-01       6.099384976450e+02 
       1.437252412078e-01       5.732325884499e+02 
       1.485369022173e-01       5.375207280072e+02 
       1.535073541252e-01       5.045839100623e+02 
       1.586425912008e-01       4.757142087503e+02 
       1.639486538997e-01       4.513763100764e+02 
       1.694316429592e-01       4.310704591215e+02 
       1.750977371526e-01       4.134464751289e+02 
       1.809532155312e-01       3.966787670323e+02 
       1.870044849782e-01       3.790457039939e+02 
       1.932581139063e-01       3.595459524307e+02 
       1.997208729442e-01       3.382893598187e+02 
       2.063997834959e-01       3.164318296765e+02 
       2.133021751197e-01       2.956329393925e+02 
       2.204357527761e-01       2.772818815540e+02 
       2.278086751534e-01       2.618682902261e+02 
       2.354296455036e-01       2.487944240381e+02 
       2.433080167419e-01       2.367246847435e+02 
       2.514539129940e-01       2.243306769992e+02 
       2.598783703610e-01       2.110459116146e+02 
       2.685935004454e-01       1.973421948417e+02 
       2.776126812100e-01       1.843027071098e+02 
       2.869507810970e-01       1.727937936332e+02 
       2.966244241352e-01       1.628564509612e+02 
       3.066523061632e-01       1.537620918621e+02 
       3.170555755262e-01       1.446719866392e+02 
       3.278582959934e-01       1.353444761999e+02 
       3.390880156876e-01       1.262411297283e+02 
       3.507764742396e-01       1.179422177768e+02 
       3.629604923171e-01       1.105123491550e+02 
       3.756831048301e-01       1.035027323206e+02 
       3.889950242389e-01       9.654058308544e+01 
       4.029565578527e-01       8.974306722100e+01 
       4.176401600561e-01       8.342372688189e+01 
       4.331338892501e-01       7.757445236463e+01 
       4.495461811774e-01       7.192839416043e+01 
       4.670125832389e-01       6.642773768931e+01 
       4.857054888852e-01       6.122275366142e+01 
       5.058486028637e-01       5.628062567767e+01 
       5.277391296137e-01       5.147218029632e+01 
       5.517830827555e-01       4.683491545165e+01 
       5.785539397768e-01       4.234790115054e+01 
       6.088951219090e-01       3.794161350888e+01 
       6.441100274040e-01       3.360208859238e+01 
       6.863398393139e-01       2.925737280692e+01 
       7.393757881122e-01       2.483983757616e+01 
       8.105400110262e-01       2.025177640329e+01 
       9.150764892512e-01       1.541425672882e+01 
       1.082873302291e+00       1.049028155622e+01 
       1.343424115919e+00       6.348594134064e+00 
       1.690004398537e+00       3.680639141917e+00 
       2.127572397139e+00       2.109265026691e+00 
       2.678454913651e+00       1.198051036580e+00 
       3.371974955126e+00       6.750516346998e-01 
       4.245064958942e+00       3.776101892345e-01 
       5.344220151529e+00       2.098378865200e-01 
       6.727974554983e+00       1.159075015469e-01 
       8.470018137172e+00       6.367230592571e-02 
       1.066312107124e+01       3.480151162041e-02 
