# Matter power spectrum P(k) at redshift z=1
# for k=2.22377e-07 to 11.1572 h/Mpc,
# number of wavenumbers equal to 139
#    1:k (h/Mpc)              2:P (Mpc/h)^3        
       2.223774425327e-07       2.099615433626e-01 
       2.799566134142e-07       2.630811649227e-01 
       3.524444948270e-07       3.296398864742e-01 
       4.437013307846e-07       4.130377586979e-01 
       5.585868805717e-07       5.175350344712e-01 
       7.032192186465e-07       6.484697971956e-01 
       8.853005444161e-07       8.125306484934e-01 
       1.114527352441e-06       1.018098384654e+00 
       1.403106806127e-06       1.275674115687e+00 
       1.766406813695e-06       1.598415696638e+00 
       2.223774425327e-06       2.002809872369e+00 
       2.799566134142e-06       2.509514469267e+00 
       3.524444948270e-06       3.144413652740e+00 
       4.437013307846e-06       3.939940148309e+00 
       5.585868805717e-06       4.936731952890e+00 
       7.032192186465e-06       6.185708137545e+00 
       8.853005444161e-06       7.750669718039e+00 
       1.114527352441e-05       9.711558326172e+00 
       1.403106806127e-05       1.216853890997e+01 
       1.766406813695e-05       1.524711451913e+01 
       2.223774425327e-05       1.910453349635e+01 
       2.799566134142e-05       2.393781444228e+01 
       3.524444948270e-05       2.999379507552e+01 
       4.437013307846e-05       3.758171072945e+01 
       5.585868805717e-05       4.708893000089e+01 
       7.032192186465e-05       5.900062161825e+01 
       8.853005444161e-05       7.392429833062e+01 
       1.114527352441e-04       9.262037567249e+01 
       1.403106806127e-04       1.160400791575e+02 
       1.766406813695e-04       1.453721932193e+02 
       2.223774425327e-04       1.821001865176e+02 
       2.799566134142e-04       2.280710170202e+02 
       3.524444948270e-04       2.855761624804e+02 
       4.437013307846e-04       3.574437955261e+02 
       5.585868805717e-04       4.471382579541e+02 
       7.032192186465e-04       5.588592982458e+02 
       8.853005444161e-04       6.976297964357e+02 
       1.114527352441e-03       8.693556624472e+02 
       1.403106806127e-03       1.080822662577e+03 
       1.766406813695e-03       1.339543360401e+03 
       2.223774425327e-03       1.653332053098e+03 
       2.799566134142e-03       2.029521853198e+03 
       3.524444948270e-03       2.473709501308e+03 
       4.437013307846e-03       2.987837066664e+03 
       5.585868805717e-03       3.561044859811e+03 
       7.032192186465e-03       4.188374547178e+03 
       8.853005444161e-03       4.835881583914e+03 
       1.114527352441e-02       5.453814893208e+03 
       1.403106806127e-02       5.967997119590e+03 
       1.766406813680e-02       6.280621123224e+03 
       2.223774363942e-02       6.286296765152e+03 
       2.799532190047e-02       5.918587286261e+03 
       3.520823462564e-02       5.231636356063e+03 
       4.342207681847e-02       4.502060279654e+03 
       4.991858677171e-02       4.071674553953e+03 
       5.472562899550e-02       3.832690830222e+03 
       5.875953389449e-02       3.668570692034e+03 
       6.239477224544e-02       3.536953778277e+03 
       6.580369661786e-02       3.418832665688e+03 
       6.907977663437e-02       3.304190370274e+03 
       7.228004357067e-02       3.187487436195e+03 
       7.544245622133e-02       3.065935034385e+03 
       7.859404863995e-02       2.938703885877e+03 
       8.175516612437e-02       2.806466850546e+03 
       8.494184751903e-02       2.671047228463e+03 
       8.816725036645e-02       2.535081046792e+03 
       9.144254684653e-02       2.401663778684e+03 
       9.477751031944e-02       2.273984174295e+03 
       9.818091237021e-02       2.154965436543e+03 
       1.016607991079e-01       2.046939845184e+03 
       1.052246878514e-01       1.951381578300e+03 
       1.088797097256e-01       1.868717088747e+03 
       1.126327145238e-01       1.798226972857e+03 
       1.164903486287e-01       1.738054459505e+03 
       1.204591133086e-01       1.685341325268e+03 
       1.245454084903e-01       1.636515812869e+03 
       1.287555656639e-01       1.587747830769e+03 
       1.330958726244e-01       1.535550252609e+03 
       1.375725921234e-01       1.477443047210e+03 
       1.421919760805e-01       1.412527513086e+03 
       1.469602767267e-01       1.341782473509e+03 
       1.518837558671e-01       1.267930046452e+03 
       1.569686933322e-01       1.194837294591e+03 
       1.622213956105e-01       1.126579061571e+03 
       1.676482056098e-01       1.066411225858e+03 
       1.732555144625e-01       1.015930615518e+03 
       1.790497762756e-01       9.746353537297e+02 
       1.850375267078e-01       9.400104956968e+02 
       1.912254062529e-01       9.081884109351e+02 
       1.976201891036e-01       8.751235690876e+02 
       2.042288184715e-01       8.380017823500e+02 
       2.110584492618e-01       7.963393087141e+02 
       2.181164990319e-01       7.521717661098e+02 
       2.254107082327e-01       7.091014478612e+02 
       2.329492108381e-01       6.706070153740e+02 
       2.407406166302e-01       6.384483405708e+02 
       2.487941066449e-01       6.119239486711e+02 
       2.571195436103e-01       5.883232788733e+02 
       2.657275996684e-01       5.644215738197e+02 
       2.746299042723e-01       5.383168604947e+02 
       2.838392159648e-01       5.104870133530e+02 
       2.933696228156e-01       4.832463007470e+02 
       3.032367777077e-01       4.589421672245e+02 
       3.134581765460e-01       4.382550364375e+02 
       3.240534899595e-01       4.198584930528e+02 
       3.350449624413e-01       4.016593643358e+02 
       3.464578974412e-01       3.826106072855e+02 
       3.583212532184e-01       3.634681031568e+02 
       3.706683830314e-01       3.457450706180e+02 
       3.835379656457e-01       3.300100661025e+02 
       3.969751899672e-01       3.153956677852e+02 
       4.110332836836e-01       3.007925900644e+02 
       4.257755146432e-01       2.861917906649e+02 
       4.412778527957e-01       2.724052012968e+02 
       4.576325724428e-01       2.596806472560e+02 
       4.749532211465e-01       2.473965620674e+02 
       4.933816219713e-01       2.352086436385e+02 
       5.130979820634e-01       2.234795408811e+02 
       5.343358917214e-01       2.122823758679e+02 
       5.574052923985e-01       2.012384482427e+02 
       5.827289543568e-01       1.903644658485e+02 
       6.109029310911e-01       1.796810930450e+02 
       6.428018945215e-01       1.689446445213e+02 
       6.797738332057e-01       1.580923756894e+02 
       7.240256894262e-01       1.468677642767e+02 
       7.794491183496e-01       1.349730261789e+02 
       8.535267063352e-01       1.218979448867e+02 
       9.617993434690e-01       1.068953191249e+02 
       1.135080756249e+00       8.934144942231e+01 
       1.405892268079e+00       7.080485299943e+01 
       1.768314867066e+00       5.465933703037e+01 
       2.226153201448e+00       4.137117589786e+01 
       2.802560772148e+00       3.050431213029e+01 
       3.528214974132e+00       2.178992947362e+01 
       4.441759489208e+00       1.503416245295e+01 
       5.591843894041e+00       1.002351402662e+01 
       7.039714376995e+00       6.480381439104e+00 
       8.862475320971e+00       4.082681308025e+00 
       1.115719539297e+01       2.518938508993e+00 
