# Matter power spectrum P(k) at redshift z=1
# for k=2.29539e-07 to 11.5169 h/Mpc,
# number of wavenumbers equal to 139
#    1:k (h/Mpc)              2:P (Mpc/h)^3        
       2.295386263736e-07       3.023104580298e-01 
       2.889720097300e-07       3.766024760734e-01 
       3.637942063464e-07       4.691515664719e-01 
       4.579897710330e-07       5.844443577554e-01 
       5.765749610952e-07       7.280700556569e-01 
       7.258648703270e-07       9.069913986472e-01 
       9.138097307833e-07       1.129882199693e+00 
       1.150418291628e-06       1.407547837961e+00 
       1.448290821523e-06       1.753449084697e+00 
       1.823290118884e-06       2.184354656781e+00 
       2.295386263736e-06       2.721154132332e+00 
       2.889720097300e-06       3.389870633011e+00 
       3.637942063464e-06       4.222922363843e+00 
       4.579897710330e-06       5.260694157590e+00 
       5.765749610952e-06       6.553495190874e+00 
       7.258648703270e-06       8.163997744658e+00 
       9.138097307833e-06       1.017027516641e+01 
       1.150418291628e-05       1.266958616817e+01 
       1.448290821523e-05       1.578308864474e+01 
       1.823290118884e-05       1.966171099116e+01 
       2.295386263736e-05       2.449346448366e+01 
       2.889720097300e-05       3.051254910438e+01 
       3.637942063464e-05       3.801069010682e+01 
       4.579897710330e-05       4.735124668890e+01 
       5.765749610952e-05       5.898676060973e+01 
       7.258648703270e-05       7.348076370987e+01 
       9.138097307833e-05       9.153483905036e+01 
       1.150418291628e-04       1.140221252689e+02 
       1.448290821523e-04       1.420286496609e+02 
       1.823290118884e-04       1.769040314579e+02 
       2.295386263736e-04       2.203231276628e+02 
       2.889720097300e-04       2.743599432460e+02 
       3.637942063464e-04       3.415743388194e+02 
       4.579897710330e-04       4.251104005788e+02 
       5.765749610952e-04       5.288025210054e+02 
       7.258648703270e-04       6.572814850625e+02 
       9.138097307833e-04       8.160690139058e+02 
       1.150418291628e-03       1.011643957372e+03 
       1.448290821523e-03       1.251443897115e+03 
       1.823290118884e-03       1.543713000927e+03 
       2.295386263736e-03       1.897063868694e+03 
       2.889720097300e-03       2.319679347893e+03 
       3.637942063464e-03       2.817987960455e+03 
       4.579897710330e-03       3.394636247283e+03 
       5.765749610952e-03       4.036139717508e+03 
       7.258648703270e-03       4.741751306658e+03 
       9.138097307833e-03       5.473723099543e+03 
       1.150418291628e-02       6.178332872794e+03 
       1.448290821523e-02       6.774271159311e+03 
       1.823290118862e-02       7.152733004290e+03 
       2.295386181321e-02       7.194182368318e+03 
       2.889677530148e-02       6.819041940821e+03 
       3.633646376574e-02       6.079190738638e+03 
       4.473233385621e-02       5.280411213787e+03 
       5.129040743909e-02       4.803735341943e+03 
       5.616755052521e-02       4.532292204653e+03 
       6.027506403072e-02       4.343177442312e+03 
       6.398377916806e-02       4.190820203235e+03 
       6.746557720770e-02       4.054373986991e+03 
       7.081415905345e-02       3.922647628856e+03 
       7.408691206613e-02       3.789296295520e+03 
       7.732214114661e-02       3.650969784075e+03 
       8.054718913004e-02       3.506469712523e+03 
       8.378267272118e-02       3.356271819453e+03 
       8.704487097638e-02       3.202164665579e+03 
       9.034715711549e-02       3.046901676456e+03 
       9.370090016286e-02       2.893829164664e+03 
       9.711605603923e-02       2.746490723355e+03 
       1.006015681431e-01       2.608227590743e+03 
       1.041656463740e-01       2.481804357294e+03 
       1.078159659102e-01       2.369089457107e+03 
       1.115598114088e-01       2.270815210529e+03 
       1.154041830977e-01       2.186436497121e+03 
       1.193558756342e-01       2.114106964929e+03 
       1.234215371148e-01       2.050796725084e+03 
       1.276077133877e-01       1.992580946306e+03 
       1.319208813624e-01       1.935120838219e+03 
       1.363674740584e-01       1.874324397083e+03 
       1.409538994900e-01       1.807107131400e+03 
       1.456865550673e-01       1.732091730098e+03 
       1.505718389044e-01       1.650030874096e+03 
       1.556161592481e-01       1.563758327327e+03 
       1.608259431147e-01       1.477593885092e+03 
       1.662076451498e-01       1.396310521107e+03 
       1.717677576794e-01       1.323933157348e+03 
       1.775128228875e-01       1.262694451333e+03 
       1.834494480411e-01       1.212417031557e+03 
       1.895843246659e-01       1.170490589597e+03 
       1.959242525720e-01       1.132525701337e+03 
       2.024761696226e-01       1.093653365772e+03 
       2.092471881452e-01       1.050198726847e+03 
       2.162446389029e-01       1.001121756192e+03 
       2.234761235798e-01       9.484689278260e+02 
       2.309495768064e-01       8.964344833149e+02 
       2.386733388603e-01       8.493923729936e+02 
       2.466562403480e-01       8.098691475883e+02 
       2.549077004164e-01       7.774331962770e+02 
       2.634378403875e-01       7.490125973640e+02 
       2.722576151771e-01       7.205715739239e+02 
       2.813789654861e-01       6.894109450014e+02 
       2.908149945932e-01       6.557326995622e+02 
       3.005801746829e-01       6.222692953368e+02 
       3.106905891102e-01       5.921414731942e+02 
       3.211642189427e-01       5.665628426433e+02 
       3.320212847152e-01       5.441094597583e+02 
       3.432846578128e-01       5.220725988746e+02 
       3.549803606386e-01       4.988291885701e+02 
       3.671381812383e-01       4.751263293748e+02 
       3.797924371434e-01       4.529812400431e+02 
       3.929829360582e-01       4.333858654444e+02 
       4.067561995197e-01       4.153530777037e+02 
       4.211670427305e-01       3.973102705082e+02 
       4.362806441435e-01       3.790601757361e+02 
       4.521752998362e-01       3.617013151654e+02 
       4.689461534072e-01       3.457328831990e+02 
       4.867103448918e-01       3.303522246367e+02 
       5.056142729030e-01       3.149727398810e+02 
       5.258440886029e-01       3.000796658728e+02 
       5.476412839323e-01       2.858753591631e+02 
       5.713265923938e-01       2.718143568205e+02 
       5.973380047430e-01       2.578795756751e+02 
       6.262938825097e-01       2.441577759577e+02 
       6.591031529096e-01       2.302863987303e+02 
       6.971694840615e-01       2.161892691541e+02 
       7.427968305565e-01       2.015048130307e+02 
       8.000604576192e-01       1.858133615419e+02 
       8.768223445374e-01       1.683772185717e+02 
       9.894410712587e-01       1.480885988499e+02 
       1.170083561028e+00       1.239523199178e+02 
       1.451043176514e+00       9.807621431836e+01 
       1.825321555469e+00       7.516956021931e+01 
       2.297923968947e+00       5.608256994479e+01 
       2.892914828629e+00       4.047463860036e+01 
       3.641963991901e+00       2.814659051912e+01 
       4.584961018243e+00       1.887028255462e+01 
       5.772123937952e+00       1.224811893301e+01 
       7.266673505513e+00       7.740283402622e+00 
       9.148199935302e+00       4.789070142040e+00 
       1.151690137073e+01       2.915167392296e+00 
