# Matter power spectrum P(k) at redshift z=2.5
# for k=1.74953e-07 to 11.0522 h/Mpc,
# number of wavenumbers equal to 140
#    1:k (h/Mpc)              2:P (Mpc/h)^3        
       1.749530610417e-07       2.675982312425e-01 
       2.202528544166e-07       3.346518560883e-01 
       2.772819154453e-07       4.185074924036e-01 
       3.490772495851e-07       5.233753165972e-01 
       4.394622201818e-07       6.545204726865e-01 
       5.532501565104e-07       8.185274217574e-01 
       6.965006811100e-07       1.023630530076e+00 
       8.768424067814e-07       1.280127494758e+00 
       1.103879188036e-06       1.600896362541e+00 
       1.389701561369e-06       2.002042099422e+00 
       1.749530610417e-06       2.503705171494e+00 
       2.202528544166e-06       3.131072730430e+00 
       2.772819154453e-06       3.915643163685e+00 
       3.490772495851e-06       4.896807486327e+00 
       4.394622201818e-06       6.123826935656e+00 
       5.532501565104e-06       7.658306006725e+00 
       6.965006811100e-06       9.577284971205e+00 
       8.768424067814e-06       1.197710688584e+01 
       1.103879188036e-05       1.497825283500e+01 
       1.389701561369e-05       1.873138714076e+01 
       1.749530610417e-05       2.342491430550e+01 
       2.202528544166e-05       2.929442334582e+01 
       2.772819154453e-05       3.663448648732e+01 
       3.490772495851e-05       4.581339015495e+01 
       4.394622201818e-05       5.729150943392e+01 
       5.532501565104e-05       7.164419215149e+01 
       6.965006811100e-05       8.959019036665e+01 
       8.768424067814e-05       1.120268477019e+02 
       1.103879188036e-04       1.400733792835e+02 
       1.389701561369e-04       1.751235783003e+02 
       1.749530610417e-04       2.189089737051e+02 
       2.202528544166e-04       2.735725199712e+02 
       2.772819154453e-04       3.417507703643e+02 
       3.490772495851e-04       4.266583701045e+02 
       4.394622201818e-04       5.321618298420e+02 
       5.532501565104e-04       6.628202217243e+02 
       6.965006811100e-04       8.238623276076e+02 
       8.768424067814e-04       1.021070378938e+03 
       1.103879188036e-03       1.260546440462e+03 
       1.389701561369e-03       1.548292048292e+03 
       1.749530610417e-03       1.889372270767e+03 
       2.202528544166e-03       2.286462295392e+03 
       2.772819154453e-03       2.738055772909e+03 
       3.490772495851e-03       3.236277036599e+03 
       4.394622201818e-03       3.764030792872e+03 
       5.532501565104e-03       4.292154557376e+03 
       6.965006811100e-03       4.776656299777e+03 
       8.768424067814e-03       5.156543793580e+03 
       1.103879188036e-02       5.353786881083e+03 
       1.389701561369e-02       5.279968558059e+03 
       1.749530607196e-02       4.859858718582e+03 
       2.202524988872e-02       4.085309127722e+03 
       2.772153243077e-02       3.091919036416e+03 
       3.461853074034e-02       2.197486826177e+03 
       4.092462272866e-02       1.733827659588e+03 
       4.543962075783e-02       1.559374587727e+03 
       4.908088597744e-02       1.478502722914e+03 
       5.229401324543e-02       1.430918251528e+03 
       5.527061849212e-02       1.393495033003e+03 
       5.810915454913e-02       1.354909708234e+03 
       6.086741723244e-02       1.309110396596e+03 
       6.358277381872e-02       1.253194385430e+03 
       6.628123235673e-02       1.186553652151e+03 
       6.898199826117e-02       1.110391111866e+03 
       7.169997010891e-02       1.027299591688e+03 
       7.444720175239e-02       9.408035850309e+02 
       7.723380606477e-02       8.548557254741e+02 
       8.006853843403e-02       7.733321798065e+02 
       8.295918723754e-02       6.995904492382e+02 
       8.591284300610e-02       6.361470518591e+02 
       8.893608855165e-02       5.845017864217e+02 
       9.203513595825e-02       5.450950085126e+02 
       9.521592684649e-02       5.173477255829e+02 
       9.848420662663e-02       4.997287365161e+02 
       1.018455799356e-01       4.898236661817e+02 
       1.053055522213e-01       4.844422648129e+02 
       1.088695609964e-01       4.798555148495e+02 
       1.125429993344e-01       4.722555580838e+02 
       1.163312335567e-01       4.584474351764e+02 
       1.202396166355e-01       4.366271325641e+02 
       1.242734985657e-01       4.069606190434e+02 
       1.284382347694e-01       3.716607269867e+02 
       1.327391934813e-01       3.344290944908e+02 
       1.371817629850e-01       2.994231882673e+02 
       1.417713595220e-01       2.701438585861e+02 
       1.465134366683e-01       2.486349952769e+02 
       1.514134969489e-01       2.351482200877e+02 
       1.564771064549e-01       2.281768180835e+02 
       1.617099132138e-01       2.247561646787e+02 
       1.671176700627e-01       2.211234705247e+02 
       1.727062627728e-01       2.138646822160e+02 
       1.784817441850e-01       2.012828097980e+02 
       1.844503751400e-01       1.842154473941e+02 
       1.906186730329e-01       1.656060937354e+02 
       1.969934688998e-01       1.489764603278e+02 
       2.035819740642e-01       1.367582140934e+02 
       2.103918575489e-01       1.293649627302e+02 
       2.174313357083e-01       1.252039378032e+02 
       2.247092758854e-01       1.214906824502e+02 
       2.322353163608e-01       1.157220642089e+02 
       2.400200054920e-01       1.071839795122e+02 
       2.480749637636e-01       9.731765309241e+01 
       2.564130735673e-01       8.848252595305e+01 
       2.650487029783e-01       8.217174510332e+01 
       2.739979717235e-01       7.808888768344e+01 
       2.832790701181e-01       7.458039258847e+01 
       2.929126452468e-01       7.007390376675e+01 
       3.029222734498e-01       6.443521259659e+01 
       3.133350448112e-01       5.888668845723e+01 
       3.241822946854e-01       5.455595387155e+01 
       3.355005306380e-01       5.132090282555e+01 
       3.473326225567e-01       4.814803405995e+01 
       3.597293523735e-01       4.444555734167e+01 
       3.727514631209e-01       4.071477729817e+01 
       3.864724138209e-01       3.761916140137e+01 
       4.009821521961e-01       3.496776112894e+01 
       4.163923883408e-01       3.219657134332e+01 
       4.328441384980e-01       2.939007810523e+01 
       4.505188021349e-01       2.692055320493e+01 
       4.696549214391e-01       2.460498544962e+01 
       4.905744296227e-01       2.225738971214e+01 
       5.137254473063e-01       2.007419860468e+01 
       5.397554296624e-01       1.795609958400e+01 
       5.696433366615e-01       1.587529516598e+01 
       6.049545941861e-01       1.383680391792e+01 
       6.483713549513e-01       1.179722003741e+01 
       7.048859657707e-01       9.719342293364e+00 
       7.846263398895e-01       7.565854634161e+00 
       9.086597140286e-01       5.350409419828e+00 
       1.108764300718e+00       3.324223165199e+00 
       1.391475237423e+00       1.916073881961e+00 
       1.751651737464e+00       1.087700132807e+00 
       2.205198301780e+00       6.129784892646e-01 
       2.776180179696e+00       3.432111661581e-01 
       3.495003775938e+00       1.910309651683e-01 
       4.399949067845e+00       1.057518800779e-01 
       5.539207692110e+00       5.825134305233e-02 
       6.973449324803e+00       3.193930868296e-02 
       8.779052562854e+00       1.743789186892e-02 
       1.105217236285e+01       9.482807589353e-03 
