# Matter power spectrum P(k) at redshift z=1
# for k=2.02933e-07 to 10.1827 h/Mpc,
# number of wavenumbers equal to 139
#    1:k (h/Mpc)              2:P (Mpc/h)^3        
       2.029332956955e-07       5.907133871086e-01 
       2.554778828502e-07       7.362864582047e-01 
       3.216275988715e-07       9.177339809951e-01 
       4.049051573537e-07       1.143896713326e+00 
       5.097453919591e-07       1.425794093874e+00 
       6.417314274823e-07       1.777161147832e+00 
       8.078920016044e-07       2.215117704385e+00 
       1.017075770805e-06       2.761002533411e+00 
       1.280422533587e-06       3.441413042142e+00 
       1.611956465366e-06       4.289501188712e+00 
       2.029332956955e-06       5.346588750383e+00 
       2.554778828502e-06       6.664180643572e+00 
       3.216275988715e-06       8.306474382902e+00 
       4.049051573537e-06       1.035348792412e+01 
       5.097453919591e-06       1.290495825450e+01 
       6.417314274823e-06       1.608520060506e+01 
       8.078920016044e-06       2.004916488091e+01 
       1.017075770805e-05       2.498998409793e+01 
       1.280422533587e-05       3.114838200219e+01 
       1.611956465366e-05       3.882439702541e+01 
       2.029332956955e-05       4.839199146640e+01 
       2.554778828502e-05       6.031725296877e+01 
       3.216275988715e-05       7.518106590714e+01 
       4.049051573537e-05       9.370733902271e+01 
       5.097453919591e-05       1.167981285792e+02 
       6.417314274823e-05       1.455772975082e+02 
       8.078920016044e-05       1.814446980828e+02 
       1.017075770805e-04       2.261432449626e+02 
       1.280422533587e-04       2.818416132564e+02 
       1.611956465366e-04       3.512355586285e+02 
       2.029332956955e-04       4.376708207172e+02 
       2.554778828502e-04       5.452898881783e+02 
       3.216275988715e-04       6.792030131435e+02 
       4.049051573537e-04       8.456800438108e+02 
       5.097453919591e-04       1.052353411688e+03 
       6.417314274823e-04       1.308414636170e+03 
       8.078920016044e-04       1.624778981645e+03 
       1.017075770805e-03       2.014181700102e+03 
       1.280422533587e-03       2.491124764818e+03 
       1.611956465366e-03       3.071478320316e+03 
       2.029332956955e-03       3.771471046705e+03 
       2.554778828502e-03       4.605932992076e+03 
       3.216275988715e-03       5.585461589934e+03 
       4.049051573537e-03       6.712206730747e+03 
       5.097453919591e-03       7.953318476478e+03 
       6.417314274823e-03       9.304907650432e+03 
       8.078920016044e-03       1.068455921941e+04 
       1.017075770805e-02       1.197942933458e+04 
       1.280422533587e-02       1.302370123740e+04 
       1.611956465334e-02       1.360246964462e+04 
       2.029332848636e-02       1.349171188045e+04 
       2.554728374106e-02       1.256731289046e+04 
       3.211596170940e-02       1.098849029391e+04 
       3.941920660420e-02       9.417361835056e+03 
       4.502368913915e-02       8.532253473157e+03 
       4.922494863977e-02       8.035356040495e+03 
       5.278220575551e-02       7.692358696045e+03 
       5.600332130032e-02       7.417346690159e+03 
       5.903252070750e-02       7.170877060354e+03 
       6.194904727393e-02       6.931788112828e+03 
       6.480170928103e-02       6.688183910124e+03 
       6.762322611053e-02       6.433948718693e+03 
       7.043703440589e-02       6.167145501727e+03 
       7.326085646618e-02       5.889086864992e+03 
       7.610872026480e-02       5.603611197740e+03 
       7.899217418603e-02       5.316373128777e+03 
       8.192105392104e-02       5.034086926576e+03 
       8.490398627904e-02       4.763731361627e+03 
       8.794873121088e-02       4.511763501073e+03 
       9.106242038478e-02       4.283401759487e+03 
       9.425172734680e-02       4.082034427022e+03 
       9.752299107518e-02       3.908795277676e+03 
       1.008823069451e-01       3.762333034533e+03 
       1.043355943764e-01       3.638802289533e+03 
       1.078886474686e-01       3.532118497730e+03 
       1.115471730284e-01       3.434535045025e+03 
       1.153168191562e-01       3.337591395934e+03 
       1.192031967432e-01       3.233410334262e+03 
       1.232118956849e-01       3.116184741831e+03 
       1.273484972577e-01       2.983523960509e+03 
       1.316185838635e-01       2.837222924485e+03 
       1.360277471897e-01       2.683073446491e+03 
       1.405815957325e-01       2.529600185785e+03 
       1.452857625648e-01       2.385983921215e+03 
       1.501459141893e-01       2.259740060470e+03 
       1.551677612964e-01       2.154788680131e+03 
       1.603570722239e-01       2.070393784486e+03 
       1.657196899112e-01       2.001237758124e+03 
       1.712615531290e-01       1.938755131117e+03 
       1.769887227645e-01       1.873667516762e+03 
       1.829074139487e-01       1.799197221017e+03 
       1.890240348251e-01       1.713759714174e+03 
       1.953452327978e-01       1.621658660138e+03 
       2.018779491560e-01       1.531078424418e+03 
       2.086294830745e-01       1.450215992737e+03 
       2.156075661377e-01       1.383503308575e+03 
       2.228204487554e-01       1.329716374163e+03 
       2.302770001405e-01       1.282793520402e+03 
       2.379868239373e-01       1.235131549804e+03 
       2.459603921438e-01       1.181926403934e+03 
       2.542092007186e-01       1.123951717279e+03 
       2.627459512396e-01       1.066575144895e+03 
       2.715847642867e-01       1.015555669320e+03 
       2.807414319386e-01       9.728435428487e+02 
       2.902337190745e-01       9.354998287228e+02 
       3.000817262665e-01       8.984537241444e+02 
       3.103083312543e-01       8.589292847011e+02 
       3.209397317908e-01       8.185895974847e+02 
       3.320061207323e-01       7.812054739959e+02 
       3.435425357057e-01       7.483970858136e+02 
       3.555899421777e-01       7.181550847971e+02 
       3.681966329094e-01       6.876444682459e+02 
       3.814200628551e-01       6.567130676853e+02 
       3.953292935375e-01       6.274340913994e+02 
       4.100083066505e-01       6.005710512316e+02 
       4.255605836865e-01       5.745782207302e+02 
       4.421155736779e-01       5.485087865593e+02 
       4.598380532444e-01       5.233139293928e+02 
       4.789420542617e-01       4.992587341190e+02 
       4.997122607842e-01       4.753537817356e+02 
       5.225381204544e-01       4.516495365168e+02 
       5.479706288500e-01       4.282443764229e+02 
       5.768217889842e-01       4.045020579919e+02 
       6.103495856411e-01       3.802903579426e+02 
       6.506269849852e-01       3.549430237440e+02 
       7.013381471643e-01       3.276856825481e+02 
       7.696270527871e-01       2.971480306509e+02 
       8.703953153526e-01       2.612497122303e+02 
       1.032531734518e+00       2.181678764458e+02 
       1.282739033831e+00       1.719805634201e+02 
       1.613855049170e+00       1.310723881326e+02 
       2.031710338607e+00       9.695899595386e+01 
       2.557771745403e+00       6.923415709091e+01 
       3.220043847848e+00       4.761223512140e+01 
       4.053795027148e+00       3.160361766935e+01 
       5.103425573881e+00       2.035013822828e+01 
       6.424832142159e+00       1.278484326679e+01 
       8.088384450276e+00       7.878273931627e+00 
       1.018267272481e+01       4.783512876770e+00 
