# Matter power spectrum P(k) at redshift z=2.5
# for k=1.82812e-07 to 11.5465 h/Mpc,
# number of wavenumbers equal to 140
#    1:k (h/Mpc)              2:P (Mpc/h)^3        
       1.828124027486e-07       1.428766846130e-01 
       2.301471794114e-07       1.792715459289e-01 
       2.897381326137e-07       2.249372405609e-01 
       3.647586979132e-07       2.822353202313e-01 
       4.592039939758e-07       3.541288926800e-01 
       5.781035772136e-07       4.443358554748e-01 
       7.277892840033e-07       5.575211628377e-01 
       9.162324240632e-07       6.995380681855e-01 
       1.153468281763e-06       8.777308178938e-01 
       1.452130531610e-06       1.101314448830e+00 
       1.828124027486e-06       1.381851331232e+00 
       2.301471794114e-06       1.733849095190e+00 
       2.897381326137e-06       2.175510864280e+00 
       3.647586979132e-06       2.729676579637e+00 
       4.592039939758e-06       3.425004085316e+00 
       5.781035772136e-06       4.297451023443e+00 
       7.277892840033e-06       5.392134115530e+00 
       9.162324240632e-06       6.765661865375e+00 
       1.153468281763e-05       8.489061111364e+00 
       1.452130531610e-05       1.065144829323e+01 
       1.828124027486e-05       1.336463444064e+01 
       2.301471794114e-05       1.676890024261e+01 
       2.897381326137e-05       2.104023637365e+01 
       3.647586979132e-05       2.639941655593e+01 
       4.592039939758e-05       3.312335877276e+01 
       5.781035772136e-05       4.155933487669e+01 
       7.277892840033e-05       5.214270917964e+01 
       9.162324240632e-05       6.541901636319e+01 
       1.153468281763e-04       8.207130932543e+01 
       1.452130531610e-04       1.029537776657e+02 
       1.828124027486e-04       1.291325714498e+02 
       2.301471794114e-04       1.619344004115e+02 
       2.897381326137e-04       2.030025312606e+02 
       3.647586979132e-04       2.543578448494e+02 
       4.592039939758e-04       3.184591617589e+02 
       5.781035772136e-04       3.982520412550e+02 
       7.277892840033e-04       4.971901222269e+02 
       9.162324240632e-04       6.192111391664e+02 
       1.153468281763e-03       7.686497260970e+02 
       1.452130531610e-03       9.500444740529e+02 
       1.828124027486e-03       1.167712351893e+03 
       2.301471794114e-03       1.424951189833e+03 
       2.897381326137e-03       1.722958240103e+03 
       3.647586979132e-03       2.059379564750e+03 
       4.592039939758e-03       2.425811774212e+03 
       5.781035772136e-03       2.807305790975e+03 
       7.277892840033e-03       3.177374944292e+03 
       9.162324240632e-03       3.497031042385e+03 
       1.153468281763e-02       3.713190564591e+03 
       1.452130531607e-02       3.761837386354e+03 
       1.828124011983e-02       3.582747232004e+03 
       2.301460178592e-02       3.155484955607e+03 
       2.895794233326e-02       2.554292053500e+03 
       3.595382463925e-02       1.992061193166e+03 
       4.183638276653e-02       1.695451133825e+03 
       4.610540968960e-02       1.562524076940e+03 
       4.962832856112e-02       1.486942462650e+03 
       5.277496819492e-02       1.433758823341e+03 
       5.571037596668e-02       1.388367495600e+03 
       5.852198417554e-02       1.343308194127e+03 
       6.126224992070e-02       1.294512818596e+03 
       6.396564618747e-02       1.239984337607e+03 
       6.665647714941e-02       1.179231637591e+03 
       6.935288095857e-02       1.112945819383e+03 
       7.206905494716e-02       1.042732152752e+03 
       7.481657459303e-02       9.708289385606e+02 
       7.760521653985e-02       8.998023045192e+02 
       8.044349411113e-02       8.322332255785e+02 
       8.333901798094e-02       7.704287124807e+02 
       8.629874611360e-02       7.161875080171e+02 
       8.932916107925e-02       6.706380132522e+02 
       9.243639825773e-02       6.341491890004e+02 
       9.562633992258e-02       6.063010660356e+02 
       9.890468505064e-02       5.858993435728e+02 
       1.022770015042e-01       5.710353351574e+02 
       1.057487651969e-01       5.592173594634e+02 
       1.093253895335e-01       5.476185669754e+02 
       1.130122475444e-01       5.334727012727e+02 
       1.168146885580e-01       5.145930891938e+02 
       1.207380508714e-01       4.899005707106e+02 
       1.247876716202e-01       4.597738660113e+02 
       1.289688948864e-01       4.260405936109e+02 
       1.332870789667e-01       3.915436581398e+02 
       1.377476036615e-01       3.593983438693e+02 
       1.423558783956e-01       3.321910393383e+02 
       1.471173519574e-01       3.113661258225e+02 
       1.520375246263e-01       2.969209272638e+02 
       1.571219634444e-01       2.874097209422e+02 
       1.623763213836e-01       2.802535306059e+02 
       1.678063611532e-01       2.724096921490e+02 
       1.734179843975e-01       2.613765676366e+02 
       1.792172670432e-01       2.462121782864e+02 
       1.852105015867e-01       2.279833993151e+02 
       1.914042471607e-01       2.092455262236e+02 
       1.978053883066e-01       1.927797784607e+02 
       2.044212035084e-01       1.803118562015e+02 
       2.112594447326e-01       1.718296493276e+02 
       2.183284294904e-01       1.656932158524e+02 
       2.256371472996e-01       1.594839773273e+02 
       2.331953829247e-01       1.513464212225e+02 
       2.410138594299e-01       1.411111454530e+02 
       2.491044049535e-01       1.302913588585e+02 
       2.574801482702e-01       1.208547356706e+02 
       2.661557497330e-01       1.137754083783e+02 
       2.751476762294e-01       1.084514836748e+02 
       2.844745315191e-01       1.033201492683e+02 
       2.941574570333e-01       9.722231614164e+01 
       3.042206233083e-01       9.038321157385e+01 
       3.146918393070e-01       8.399291046233e+01 
       3.256033168762e-01       7.884241107169e+01 
       3.369926419112e-01       7.454521815241e+01 
       3.489040246826e-01       7.014621864749e+01 
       3.613899328055e-01       6.534875636216e+01 
       3.745132573509e-01       6.075667296781e+01 
       3.883502354652e-01       5.682872830923e+01 
       4.029944685751e-01       5.320930221666e+01 
       4.185625640507e-01       4.946200117452e+01 
       4.352022457069e-01       4.581423196379e+01 
       4.531043309183e-01       4.251745367055e+01 
       4.725209707033e-01       3.930463842122e+01 
       4.937944343347e-01       3.611088685179e+01 
       5.174044590708e-01       3.309299625476e+01 
       5.440500290464e-01       3.009858876121e+01 
       5.747989728647e-01       2.715035470798e+01 
       6.113807202012e-01       2.419141121046e+01 
       6.568049799162e-01       2.117975488673e+01 
       7.167745078121e-01       1.803382907202e+01 
       8.030225492870e-01       1.467185607888e+01 
       9.394763414897e-01       1.110281568617e+01 
       1.156554735637e+00       7.774846581406e+00 
       1.453653437205e+00       5.353236299118e+00 
       1.829996864984e+00       3.748805440259e+00 
       2.303829393705e+00       2.669398059034e+00 
       2.900349368089e+00       1.922810599608e+00 
       3.651323522568e+00       1.391655657972e+00 
       4.596743969243e+00       1.004548451758e+00 
       5.786957794391e+00       7.179252456686e-01 
       7.285348224339e+00       5.047206067153e-01 
       9.171710013390e+00       3.473227725037e-01 
       1.154649880546e+01       2.332657195158e-01 
