# Matter power spectrum P(k) at redshift z=2.5
# for k=1.89018e-07 to 11.9418 h/Mpc,
# number of wavenumbers equal to 140
#    1:k (h/Mpc)              2:P (Mpc/h)^3        
       1.890180460265e-07       1.978286612547e-01 
       2.379596214304e-07       2.474339063992e-01 
       2.995734143997e-07       3.094775934420e-01 
       3.771405840857e-07       3.870786431186e-01 
       4.747918651244e-07       4.841380408163e-01 
       5.977275443182e-07       6.055349382105e-01 
       7.524943948715e-07       7.573719258189e-01 
       9.473343159364e-07       9.472818084308e-01 
       1.192623243797e-06       1.184811302069e+00 
       1.501423708312e-06       1.481900943452e+00 
       1.890180460265e-06       1.853485328780e+00 
       2.379596214304e-06       2.318243859401e+00 
       2.995734143997e-06       2.899539725398e+00 
       3.771405840857e-06       3.626594314289e+00 
       4.747918651244e-06       4.535956057128e+00 
       5.977275443182e-06       5.673337504698e+00 
       7.524943948715e-06       7.095912874295e+00 
       9.473343159364e-06       8.875191371961e+00 
       1.192623243797e-05       1.110061032789e+01 
       1.501423708312e-05       1.388402799524e+01 
       1.890180460265e-05       1.736534030872e+01 
       2.379596214304e-05       2.171950085931e+01 
       2.995734143997e-05       2.716529090002e+01 
       3.771405840857e-05       3.397626814778e+01 
       4.747918651244e-05       4.249442082902e+01 
       5.977275443182e-05       5.314716613472e+01 
       7.524943948715e-05       6.646845405139e+01 
       9.473343159364e-05       8.312485350071e+01 
       1.192623243797e-04       1.039475708636e+02 
       1.501423708312e-04       1.299713051021e+02 
       1.890180460265e-04       1.624805289140e+02 
       2.379596214304e-04       2.030629226325e+02 
       2.995734143997e-04       2.536678072632e+02 
       3.771405840857e-04       3.166638450402e+02 
       4.747918651244e-04       3.948843384658e+02 
       5.977275443182e-04       4.916404548789e+02 
       7.524943948715e-04       6.106759173123e+02 
       9.473343159364e-04       7.560384567144e+02 
       1.192623243797e-03       9.318536720259e+02 
       1.501423708312e-03       1.141961955548e+03 
       1.890180460265e-03       1.389257318698e+03 
       2.379596214304e-03       1.674578314723e+03 
       2.995734143997e-03       1.995402692754e+03 
       3.771405840857e-03       2.344409990060e+03 
       4.747918651244e-03       2.707980638446e+03 
       5.977275443182e-03       3.064207661670e+03 
       7.524943948715e-03       3.385950403329e+03 
       9.473343159364e-03       3.637083620344e+03 
       1.192623243797e-02       3.777774735670e+03 
       1.501423708312e-02       3.768934039770e+03 
       1.890180458324e-02       3.582250110812e+03 
       2.379593735246e-02       3.217854037414e+03 
       2.995210858823e-02       2.726584543896e+03 
       3.746230748254e-02       2.225411453336e+03 
       4.454619801988e-02       1.885395994448e+03 
       4.961492977883e-02       1.703159605500e+03 
       5.366549555784e-02       1.580365940151e+03 
       5.722248960553e-02       1.482357575478e+03 
       6.050860069156e-02       1.396487478049e+03 
       6.363690784818e-02       1.317278367951e+03 
       6.667323916141e-02       1.242259333230e+03 
       6.965989117803e-02       1.170458070418e+03 
       7.262615961822e-02       1.101718764623e+03 
       7.559359147317e-02       1.036325803799e+03 
       7.857884556427e-02       9.747604904951e+02 
       8.159536090670e-02       9.175273841061e+02 
       8.465438425044e-02       8.650256437686e+02 
       8.776563155961e-02       8.174575965508e+02 
       9.093772960454e-02       7.747720889511e+02 
       9.417851975393e-02       7.366413734726e+02 
       9.749527221068e-02       7.024721021639e+02 
       1.008948401696e-01       6.714511974484e+02 
       1.043837725312e-01       6.426256506286e+02 
       1.079683973123e-01       6.150134522336e+02 
       1.116548838907e-01       5.877351620063e+02 
       1.154492896842e-01       5.601472422368e+02 
       1.193575952312e-01       5.319484146692e+02 
       1.233857305640e-01       5.032289145448e+02 
       1.275395950563e-01       4.744394237868e+02 
       1.318250724522e-01       4.462767890602e+02 
       1.362480424685e-01       4.195078746290e+02 
       1.408143901549e-01       3.947747013078e+02 
       1.455300140596e-01       3.724314093258e+02 
       1.504008341630e-01       3.524564688163e+02 
       1.554328004857e-01       3.344655058761e+02 
       1.606319032443e-01       3.178263693941e+02 
       1.660041854064e-01       3.018514280743e+02 
       1.715557584825e-01       2.860119386699e+02 
       1.772928223831e-01       2.700988748514e+02 
       1.832216901628e-01       2.542609261258e+02 
       1.893488184754e-01       2.388968379699e+02 
       1.956808445732e-01       2.244484519013e+02 
       2.022246307079e-01       2.111921202371e+02 
       2.089873168417e-01       1.991261191191e+02 
       2.159763826579e-01       1.880022166058e+02 
       2.231997199885e-01       1.774763575918e+02 
       2.306657169675e-01       1.672920302579e+02 
       2.383833554845e-01       1.573906072152e+02 
       2.463623238901e-01       1.478878219911e+02 
       2.546131474017e-01       1.389453437841e+02 
       2.631473393359e-01       1.306370808275e+02 
       2.719775771821e-01       1.229038930948e+02 
       2.811179087114e-01       1.156147648641e+02 
       2.905839948751e-01       1.086687288129e+02 
       3.003933983198e-01       1.020480586121e+02 
       3.105659291261e-01       9.578760496028e+01 
       3.211240631303e-01       8.990656881486e+01 
       3.320934533315e-01       8.437611885777e+01 
       3.435035619972e-01       7.914566742273e+01 
       3.553884510877e-01       7.418417202334e+01 
       3.677877828864e-01       6.948640576116e+01 
       3.807481034366e-01       6.504750457279e+01 
       3.943245119834e-01       6.084741480931e+01 
       4.085828657368e-01       5.686227308599e+01 
       4.236027402860e-01       5.307731188785e+01 
       4.394814779859e-01       4.948163602556e+01 
       4.563398379505e-01       4.605982226053e+01 
       4.743300635868e-01       4.279506642043e+01 
       4.936477044526e-01       3.967280816135e+01 
       5.145494604698e-01       3.667773854920e+01 
       5.373810528300e-01       3.379178166394e+01 
       5.626225211170e-01       3.099650821888e+01 
       5.909653545432e-01       2.827017706726e+01 
       6.234512451283e-01       2.558645728289e+01 
       6.617383632693e-01       2.291251397010e+01 
       7.086519295970e-01       2.020468049065e+01 
       7.694165204711e-01       1.740317547980e+01 
       8.545709135914e-01       1.442990919973e+01 
       9.861267384435e-01       1.124426567295e+01 
       1.198995730965e+00       8.103069122008e+00 
       1.503514675685e+00       5.653108931072e+00 
       1.892643114980e+00       3.999447273542e+00 
       2.382695509364e+00       2.876401489709e+00 
       2.999635924383e+00       2.091183206219e+00 
       3.776317891336e+00       1.526102006979e+00 
       4.754102556416e+00       1.109631842756e+00 
       5.985060518548e+00       7.980425298274e-01 
       7.534744777926e+00       5.640678503612e-01 
       9.485681672314e+00       3.898661495483e-01 
       1.194176570547e+01       2.626779207732e-01 
