# Matter power spectrum P(k) at redshift z=1
# for k=1.78183e-07 to 11.2544 h/Mpc,
# number of wavenumbers equal to 140
#    1:k (h/Mpc)              2:P (Mpc/h)^3        
       1.781826183557e-07       7.705168857854e-01 
       2.243186261880e-07       9.578823264687e-01 
       2.824004188469e-07       1.190809141042e+00 
       3.555210635876e-07       1.480376420226e+00 
       4.475745013785e-07       1.840357339989e+00 
       5.634629134566e-07       2.287874277572e+00 
       7.093577803540e-07       2.844213230630e+00 
       8.930285357416e-07       3.535836276091e+00 
       1.124256317102e-06       4.395640224815e+00 
       1.415354846970e-06       5.464521336799e+00 
       1.781826183557e-06       6.793320515690e+00 
       2.243186261880e-06       8.445241496032e+00 
       2.824004188469e-06       1.049885702331e+01 
       3.555210635876e-06       1.305184596500e+01 
       4.475745013785e-06       1.622563903570e+01 
       5.634629134566e-06       2.017119393880e+01 
       7.093577803540e-06       2.507617429144e+01 
       8.930285357416e-06       3.117387317616e+01 
       1.124256317102e-05       3.875430450193e+01 
       1.415354846970e-05       4.817798727005e+01 
       1.781826183557e-05       5.989307357108e+01 
       2.243186261880e-05       7.445662540729e+01 
       2.824004188469e-05       9.256103364216e+01 
       3.555210635876e-05       1.150667986738e+02 
       4.475745013785e-05       1.430431594661e+02 
       5.634629134566e-05       1.778183607115e+02 
       7.093577803540e-05       2.210416699504e+02 
       8.930285357416e-05       2.747595490021e+02 
       1.124256317102e-04       3.415085442933e+02 
       1.415354846970e-04       4.244272768127e+02 
       1.781826183557e-04       5.273889905451e+02 
       2.243186261880e-04       6.551537820709e+02 
       2.824004188469e-04       8.135348808113e+02 
       3.555210635876e-04       1.009565107952e+03 
       4.475745013785e-04       1.251637849815e+03 
       5.634629134566e-04       1.549584674374e+03 
       7.093577803540e-04       1.914645342065e+03 
       8.930285357416e-04       2.359278062627e+03 
       1.124256317102e-03       2.896686415228e+03 
       1.415354846970e-03       3.539753650834e+03 
       1.781826183557e-03       4.299082617300e+03 
       2.243186261880e-03       5.180161631142e+03 
       2.824004188469e-03       6.179515788949e+03 
       3.555210635876e-03       7.280008222699e+03 
       4.475745013785e-03       8.444942601206e+03 
       5.634629134566e-03       9.604846119912e+03 
       7.093577803540e-03       1.067860049940e+04 
       8.930285357416e-03       1.153334767054e+04 
       1.124256317102e-02       1.200816144038e+04 
       1.415354846969e-02       1.192420953815e+04 
       1.781826173480e-02       1.113328823816e+04 
       2.243177889455e-02       9.622712776395e+03 
       2.822759814533e-02       7.659675635850e+03 
       3.511074198308e-02       5.881726951760e+03 
       4.102819867754e-02       4.942289775755e+03 
       4.530082347760e-02       4.523449320866e+03 
       4.880577901836e-02       4.281151345618e+03 
       5.192654112784e-02       4.105658583126e+03 
       5.483250788097e-02       3.953065245245e+03 
       5.761269427849e-02       3.802038324961e+03 
       6.032019952371e-02       3.641725286975e+03 
       6.298976755485e-02       3.467467346479e+03 
       6.564580959766e-02       3.278894971677e+03 
       6.830649215486e-02       3.078796954278e+03 
       7.098600061601e-02       2.872206328649e+03 
       7.369587679804e-02       2.665515049827e+03 
       7.644585144742e-02       2.465591246225e+03 
       7.924438480117e-02       2.278945633198e+03 
       8.209903003296e-02       2.111020284609e+03 
       8.501668475984e-02       1.965659830904e+03 
       8.800376926286e-02       1.844787949197e+03 
       9.106635522625e-02       1.748270874454e+03 
       9.421026014720e-02       1.673927969658e+03 
       9.744111735199e-02       1.617662742554e+03 
       1.007644283160e-01       1.573738027906e+03 
       1.041856019275e-01       1.535273381075e+03 
       1.077099839998e-01       1.495053491404e+03 
       1.113428794596e-01       1.446656692465e+03 
       1.150895690572e-01       1.385740967597e+03 
       1.189553220547e-01       1.311133373778e+03 
       1.229454060906e-01       1.225281670894e+03 
       1.270650952531e-01       1.133760130058e+03 
       1.313196772767e-01       1.043864531731e+03 
       1.357144607141e-01       9.627184919142e+02 
       1.402547828871e-01       8.955001014197e+02 
       1.449460193920e-01       8.442693364040e+02 
       1.497935959221e-01       8.075721610749e+02 
       1.548030031529e-01       7.808036851760e+02 
       1.599798154314e-01       7.573422557328e+02 
       1.653297140066e-01       7.304688481106e+02 
       1.708585155381e-01       6.957161239131e+02 
       1.765722066346e-01       6.526701412050e+02 
       1.824769851976e-01       6.050837663160e+02 
       1.885793093968e-01       5.589880243167e+02 
       1.948859551859e-01       5.197849132834e+02 
       2.014040833906e-01       4.898794816424e+02 
       2.081413175895e-01       4.678671389489e+02 
       2.151058342612e-01       4.494557443476e+02 
       2.223064670350e-01       4.297806763676e+02 
       2.297528273570e-01       4.061445316458e+02 
       2.374554445288e-01       3.794859742676e+02 
       2.454259289234e-01       3.533449545925e+02 
       2.536771633070e-01       3.310728794497e+02 
       2.622235286800e-01       3.134932542566e+02 
       2.710811730344e-01       2.986450181745e+02 
       2.802683340771e-01       2.836304990795e+02 
       2.898057305753e-01       2.670979060765e+02 
       2.997170419134e-01       2.501576580284e+02 
       3.100295023200e-01       2.348456003000e+02 
       3.207746458951e-01       2.218742764498e+02 
       3.319892524258e-01       2.101074221534e+02 
       3.437165641667e-01       1.981528256702e+02 
       3.560078737092e-01       1.860252608166e+02 
       3.689246284126e-01       1.747394182022e+02 
       3.825412670502e-01       1.646110098926e+02 
       3.969491156154e-01       1.549210742024e+02 
       4.122618505376e-01       1.452708815618e+02 
       4.286233419367e-01       1.360827486639e+02 
       4.462192180666e-01       1.274782723728e+02 
       4.652944454106e-01       1.190641278903e+02 
       4.861810141301e-01       1.108617581390e+02 
       5.093433690168e-01       1.029472290942e+02 
       5.354566498949e-01       9.510828341238e+01 
       5.655493334369e-01       8.733899427687e+01 
       6.012812804043e-01       7.948604575694e+01 
       6.455287773254e-01       7.140496930104e+01 
       7.037154085782e-01       6.284998107224e+01 
       7.869601271485e-01       5.350072032963e+01 
       9.180919280204e-01       4.316482093860e+01 
       1.127679294606e+00       3.277315649593e+01 
       1.416892242059e+00       2.437632076733e+01 
       1.783705045452e+00       1.815095421549e+01 
       2.245551379806e+00       1.346422095727e+01 
       2.826981695394e+00       9.881095803550e+00 
       3.558959095009e+00       7.130914284697e+00 
       4.480464044243e+00       5.036508738895e+00 
       5.640570041927e+00       3.469892345768e+00 
       7.101056962787e+00       2.327443057056e+00 
       8.939701061050e+00       1.519154993640e+00 
       1.125441683960e+01       9.660090860258e-01 
