# Matter power spectrum P(k) at redshift z=0.5
# for k=2.25987e-07 to 11.3384 h/Mpc,
# number of wavenumbers equal to 139
#    1:k (h/Mpc)              2:P (Mpc/h)^3        
       2.259873932548e-07       5.476560897014e-01 
       2.845012721136e-07       6.825239900115e-01 
       3.581658811516e-07       8.506049791931e-01 
       4.509041294194e-07       1.060078240328e+00 
       5.676546668091e-07       1.321137193281e+00 
       7.146348851695e-07       1.646485528239e+00 
       8.996720170945e-07       2.051955393854e+00 
       1.132619964600e-06       2.557277822353e+00 
       1.425884055341e-06       3.187042881203e+00 
       1.795081671541e-06       3.971896273560e+00 
       2.259873932548e-06       4.950030612787e+00 
       2.845012721136e-06       6.169043936019e+00 
       3.581658811516e-06       7.688255883780e+00 
       4.509041294194e-06       9.581594237312e+00 
       5.676546668091e-06       1.194119223511e+01 
       7.146348851695e-06       1.488187164381e+01 
       8.996720170945e-06       1.854672957725e+01 
       1.132619964600e-05       2.311410061970e+01 
       1.425884055341e-05       2.880623240973e+01 
       1.795081671541e-05       3.590009565042e+01 
       2.259873932548e-05       4.474085212744e+01 
       2.845012721136e-05       5.575863135228e+01 
       3.581658811516e-05       6.948942273629e+01 
       4.509041294194e-05       8.660108131827e+01 
       5.676546668091e-05       1.079256757691e+02 
       7.146348851695e-05       1.344996804791e+02 
       8.996720170945e-05       1.676138255804e+02 
       1.132619964600e-04       2.088747529275e+02 
       1.425884055341e-04       2.602809380165e+02 
       1.795081671541e-04       3.243155305963e+02 
       2.259873932548e-04       4.040586514893e+02 
       2.845012721136e-04       5.033209292132e+02 
       3.581658811516e-04       6.267981704452e+02 
       4.509041294194e-04       7.802434804343e+02 
       5.676546668091e-04       9.706477173989e+02 
       7.146348851695e-04       1.206412735475e+03 
       8.996720170945e-04       1.497494896458e+03 
       1.132619964600e-03       1.855479156957e+03 
       1.425884055341e-03       2.293486100585e+03 
       1.795081671541e-03       2.825726060937e+03 
       2.259873932548e-03       3.466532917274e+03 
       2.845012721136e-03       4.228691215819e+03 
       3.581658811516e-03       5.120750700193e+03 
       4.509041294194e-03       6.143224356139e+03 
       5.676546668091e-03       7.283202980686e+03 
       7.146348851695e-03       8.507502664283e+03 
       8.996720170945e-03       9.754707369698e+03 
       1.132619964600e-02       1.092667709252e+04 
       1.425884055341e-02       1.188257513652e+04 
       1.795081671524e-02       1.244303995563e+04 
       2.259873866606e-02       1.242166759312e+04 
       2.844976777627e-02       1.170851015975e+04 
       3.577868739582e-02       1.041061676880e+04 
       4.410917493079e-02       9.031220356125e+03 
       5.068029529734e-02       8.198301474338e+03 
       5.554764472678e-02       7.716929968124e+03 
       5.963528454099e-02       7.373603410084e+03 
       6.332045327090e-02       7.090639411728e+03 
       6.677703462633e-02       6.833505017617e+03 
       7.009943245609e-02       6.584370995091e+03 
       7.334529372887e-02       6.333712201405e+03 
       7.655301012964e-02       6.077036456578e+03 
       7.974993716543e-02       5.813343322259e+03 
       8.295667027573e-02       5.544210543492e+03 
       8.618945102176e-02       5.273094851706e+03 
       8.946160715685e-02       5.004684307275e+03 
       9.278445826562e-02       4.744250897639e+03 
       9.616790882993e-02       4.497006754552e+03 
       9.962084978567e-02       4.267495056864e+03 
       1.031514380176e-01       4.059056081648e+03 
       1.067672953519e-01       3.873407021748e+03 
       1.104756528441e-01       3.710369419235e+03 
       1.142834568949e-01       3.567773994061e+03 
       1.181974481082e-01       3.441577492199e+03 
       1.222242202915e-01       3.326229004592e+03 
       1.263702647572e-01       3.215314745670e+03 
       1.306420036254e-01       3.102469578801e+03 
       1.350458148649e-01       2.982463212179e+03 
       1.395880511709e-01       2.852263222062e+03 
       1.442750543511e-01       2.711792232747e+03 
       1.491131666098e-01       2.564094670809e+03 
       1.541087399331e-01       2.414749333111e+03 
       1.592681446591e-01       2.270588011547e+03 
       1.645977782404e-01       2.138017422182e+03 
       1.701040751583e-01       2.021384406295e+03 
       1.757935189184e-01       1.921818078068e+03 
       1.816726570398e-01       1.836868783890e+03 
       1.877481199337e-01       1.761115619292e+03 
       1.940266445639e-01       1.687732940604e+03 
       2.005151037729e-01       1.610712635662e+03 
       2.072205421671e-01       1.527035297224e+03 
       2.141502194675e-01       1.437824262948e+03 
       2.213116622716e-01       1.347769057226e+03 
       2.287127252408e-01       1.262926211594e+03 
       2.363616628347e-01       1.187906925030e+03 
       2.442672128788e-01       1.123808727292e+03 
       2.524386934958e-01       1.067876726514e+03 
       2.608861152631e-01       1.015098825368e+03 
       2.696203109204e-01       9.610215988310e+02 
       2.786530855707e-01       9.042455284145e+02 
       2.879973911406e-01       8.469532734350e+02 
       2.976675299538e-01       7.930213091174e+02 
       3.076793937125e-01       7.450841310939e+02 
       3.180507460925e-01       7.027407318177e+02 
       3.288015596988e-01       6.631971590074e+02 
       3.399544215583e-01       6.237606963362e+02 
       3.515350259727e-01       5.840337254090e+02 
       3.635727799569e-01       5.457985023289e+02 
       3.761015554048e-01       5.108122197845e+02 
       3.891606347453e-01       4.789275353268e+02 
       4.027959149848e-01       4.485334220364e+02 
       4.170614615666e-01       4.186068776918e+02 
       4.320215430107e-01       3.897175739361e+02 
       4.477533374474e-01       3.627721373926e+02 
       4.643505957408e-01       3.375315331588e+02 
       4.819286951752e-01       3.131527832300e+02 
       5.006317624504e-01       2.895773652210e+02 
       5.206429586802e-01       2.672188052851e+02 
       5.421997437916e-01       2.458559628182e+02 
       5.656172571071e-01       2.251250078025e+02 
       5.913254618612e-01       2.051266338925e+02 
       6.199307273614e-01       1.857138650518e+02 
       6.523231754524e-01       1.666681242955e+02 
       6.898751972169e-01       1.478730992599e+02 
       7.348348851003e-01       1.290505718726e+02 
       7.911690202908e-01       1.098920854065e+02 
       8.665100265022e-01       8.997221906356e+01 
       9.767162475553e-01       6.891865368264e+01 
       1.153177969777e+00       4.733485332100e+01 
       1.428686620478e+00       2.888424074776e+01 
       1.797032363959e+00       1.684116963434e+01 
       2.262306977468e+00       9.702476000930e+00 
       2.848075682022e+00       5.539772306704e+00 
       3.585514850789e+00       3.137533862767e+00 
       4.513895760023e+00       1.764019907698e+00 
       5.682658078483e+00       9.852096118500e-01 
       7.154042661540e+00       5.469161546008e-01 
       9.006406103673e+00       3.019295894760e-01 
       1.133839351285e+01       1.658371573413e-01 
