# Matter power spectrum P(k) at redshift z=1
# for k=2.3029e-07 to 11.5582 h/Mpc,
# number of wavenumbers equal to 139
#    1:k (h/Mpc)              2:P (Mpc/h)^3        
       2.302902042064e-07       3.200470949447e-01 
       2.899181901627e-07       3.985326337852e-01 
       3.649853769372e-07       4.962652767527e-01 
       4.594893659595e-07       6.179650145456e-01 
       5.784628392556e-07       7.695093268432e-01 
       7.282415681174e-07       9.582170345262e-01 
       9.168018160278e-07       1.193201761351e+00 
       1.154185103777e-06       1.485812075271e+00 
       1.453032957059e-06       1.850179565417e+00 
       1.829260113815e-06       2.303901324614e+00 
       2.302902042064e-06       2.868889794770e+00 
       2.899181901627e-06       3.572431018968e+00 
       3.649853769372e-06       4.448502402827e+00 
       4.594893659595e-06       5.539413618503e+00 
       5.784628392556e-06       6.897849884761e+00 
       7.282415681174e-06       8.589416271020e+00 
       9.168018160279e-06       1.069580584542e+01 
       1.154185103777e-05       1.331874455176e+01 
       1.453032957059e-05       1.658490309980e+01 
       1.829260113815e-05       2.065201264086e+01 
       2.302902042064e-05       2.571647865962e+01 
       2.899181901627e-05       3.202285903956e+01 
       3.649853769372e-05       3.987566049925e+01 
       4.594893659595e-05       4.965401620191e+01 
       5.784628392556e-05       6.182993973181e+01 
       7.282415681174e-05       7.699101010860e+01 
       9.168018160279e-05       9.586853071947e+01 
       1.154185103777e-04       1.193724185743e+02 
       1.453032957059e-04       1.486343072090e+02 
       1.829260113815e-04       1.850605539049e+02 
       2.302902042064e-04       2.303969617575e+02 
       2.899181901627e-04       2.868069296166e+02 
       3.649853769372e-04       3.569642114789e+02 
       4.594893659595e-04       4.441602023204e+02 
       5.784628392556e-04       5.524234044433e+02 
       7.282415681174e-04       6.866455384619e+02 
       9.168018160279e-04       8.527051482193e+02 
       1.154185103777e-03       1.057574113943e+03 
       1.453032957059e-03       1.309374426781e+03 
       1.829260113815e-03       1.617305689938e+03 
       2.302902042064e-03       1.991326487919e+03 
       2.899181901627e-03       2.441488375569e+03 
       3.649853769372e-03       2.976773603194e+03 
       4.594893659595e-03       3.592405964109e+03 
       5.784628392556e-03       4.304567071878e+03 
       7.282415681174e-03       5.095507033678e+03 
       9.168018160279e-03       5.938848850783e+03 
       1.154185103777e-02       6.785942005544e+03 
       1.453032957059e-02       7.559835748070e+03 
       1.829260113463e-02       8.154431987676e+03 
       2.302901359899e-02       8.449248188071e+03 
       2.898979817168e-02       8.354884380059e+03 
       3.636933050433e-02       7.897965487909e+03 
       4.391608678911e-02       7.354965998357e+03 
       4.939341377315e-02       6.999027011169e+03 
       5.365345024961e-02       6.750681150587e+03 
       5.733999382219e-02       6.549765303732e+03 
       6.071806535840e-02       6.370859505002e+03 
       6.391773832392e-02       6.201186938947e+03 
       6.701292072538e-02       6.033607130676e+03 
       7.005026039757e-02       5.864106217164e+03 
       7.306162112173e-02       5.690740590936e+03 
       7.607017502572e-02       5.513111005683e+03 
       7.909366766371e-02       5.332033027475e+03 
       8.214629830078e-02       5.149265599800e+03 
       8.523986623150e-02       4.967237258179e+03 
       8.838450260484e-02       4.788748215834e+03 
       9.158915563460e-02       4.616649089628e+03 
       9.486192250888e-02       4.453510197748e+03 
       9.821028236474e-02       4.301305184217e+03 
       1.016412633001e-01       4.161137440641e+03 
       1.051615641279e-01       4.033039412017e+03 
       1.087776442832e-01       3.915877607893e+03 
       1.124957908205e-01       3.807396001715e+03 
       1.163221686195e-01       3.704426058786e+03 
       1.202628581063e-01       3.603279157173e+03 
       1.243238836122e-01       3.500307620450e+03 
       1.285112347051e-01       3.392569842671e+03 
       1.328308823102e-01       3.278477240881e+03 
       1.372887910863e-01       3.158252536980e+03 
       1.418909292955e-01       3.034028286177e+03 
       1.466432772527e-01       2.909480267860e+03 
       1.515518353454e-01       2.789019340669e+03 
       1.566226325540e-01       2.676710494952e+03 
       1.618617363626e-01       2.575192182445e+03 
       1.672752649298e-01       2.484896270764e+03 
       1.728694023693e-01       2.403824202386e+03 
       1.786504179846e-01       2.328033774561e+03 
       1.846246902910e-01       2.252823910676e+03 
       1.907987366596e-01       2.174349151030e+03 
       1.971792494266e-01       2.091100732262e+03 
       2.037731393304e-01       2.004555904386e+03 
       2.105875871849e-01       1.918544362532e+03 
       2.176301047733e-01       1.837499081877e+03 
       2.249086060647e-01       1.764384446620e+03 
       2.324314900351e-01       1.699315355021e+03 
       2.402077366287e-01       1.639588229006e+03 
       2.482470177495e-01       1.581203450865e+03 
       2.565598256540e-01       1.521162287521e+03 
       2.651576217583e-01       1.459189041575e+03 
       2.740530097265e-01       1.397663199575e+03 
       2.832599378407e-01       1.339722866056e+03 
       2.927939371394e-01       1.286920830185e+03 
       3.026724038039e-01       1.238206602490e+03 
       3.129149369172e-01       1.191006045435e+03 
       3.235437463057e-01       1.143493351906e+03 
       3.345841500540e-01       1.096031847806e+03 
       3.460651880335e-01       1.050418057404e+03 
       3.580203872366e-01       1.007778569850e+03 
       3.704887281582e-01       9.674304076792e+02 
       3.835158809063e-01       9.279042385692e+02 
       3.971558083466e-01       8.887526140583e+02 
       4.114728765382e-01       8.507796705482e+02 
       4.265446785577e-01       8.145345757981e+02 
       4.424658811200e-01       7.794551958996e+02 
       4.593535697288e-01       7.448965214736e+02 
       4.773548436679e-01       7.110467624228e+02 
       4.966578836322e-01       6.781108120880e+02 
       5.175085511323e-01       6.456701428353e+02 
       5.402361241875e-01       6.134805766493e+02 
       5.652947649374e-01       5.815265467278e+02 
       5.933334177725e-01       5.494317607704e+02 
       6.253200557360e-01       5.168626447713e+02 
       6.627767944193e-01       4.833178206253e+02 
       7.082583495529e-01       4.480367169736e+02 
       7.664061296901e-01       4.098390447258e+02 
       8.464271661379e-01       3.668633871501e+02 
       9.676347663471e-01       3.165242794300e+02 
       1.164212715842e+00       2.581409121994e+02 
       1.455408251334e+00       2.000230156882e+02 
       1.831848169122e+00       1.499898139010e+02 
       2.306156876154e+00       1.081025832775e+02 
       2.903279490352e+00       7.450753063728e+01 
       3.655012327944e+00       4.931302886721e+01 
       4.601387900070e+00       3.159890774804e+01 
       5.792804156920e+00       1.976100436760e+01 
       7.292708358693e+00       1.214070639631e+01 
       9.180975873563e+00       7.365092972901e+00 
       1.155816383230e+01       4.428177578045e+00 
