# Matter power spectrum P(k) at redshift z=1.5
# for k=1.95156e-07 to 12.3288 h/Mpc,
# number of wavenumbers equal to 140
#    1:k (h/Mpc)              2:P (Mpc/h)^3        
       1.951560737766e-07       3.668309711291e-01 
       2.456869405434e-07       4.586865390284e-01 
       3.093015327960e-07       5.735430145248e-01 
       3.893875595438e-07       7.171598931602e-01 
       4.902098937462e-07       8.967388649077e-01 
       6.171376923500e-07       1.121284943805e+00 
       7.769303234755e-07       1.402058025002e+00 
       9.780973274167e-07       1.753137512567e+00 
       1.231351580693e-06       2.192128330389e+00 
       1.550179795787e-06       2.741043718415e+00 
       1.951560737766e-06       3.427409078832e+00 
       2.456869405434e-06       4.285642218920e+00 
       3.093015327960e-06       5.358779193411e+00 
       3.893875595438e-06       6.700632268256e+00 
       4.902098937462e-06       8.378488169820e+00 
       6.171376923500e-06       1.047648184693e+01 
       7.769303234755e-06       1.309981475188e+01 
       9.780973274167e-06       1.638002883549e+01 
       1.231351580693e-05       2.048160007535e+01 
       1.550179795787e-05       2.561018085660e+01 
       1.951560737766e-05       3.202290197501e+01 
       2.456869405434e-05       4.004124574694e+01 
       3.093015327960e-05       5.006712567876e+01 
       3.893875595438e-05       6.260295907174e+01 
       4.902098937462e-05       7.827669961068e+01 
       6.171376923500e-05       9.787300732293e+01 
       7.769303234755e-05       1.223719649768e+02 
       9.780973274167e-05       1.529969801265e+02 
       1.231351580693e-04       1.912736824387e+02 
       1.550179795787e-04       2.391016184260e+02 
       1.951560737766e-04       2.988401249714e+02 
       2.456869405434e-04       3.734085082386e+02 
       3.093015327960e-04       4.663978849103e+02 
       3.893875595438e-04       5.821868761014e+02 
       4.902098937462e-04       7.260452068486e+02 
       6.171376923500e-04       9.041993611445e+02 
       7.769303234755e-04       1.123827557799e+03 
       9.780973274167e-04       1.392951092325e+03 
       1.231351580693e-03       1.720170819326e+03 
       1.550179795787e-03       2.114088921592e+03 
       1.951560737766e-03       2.582130784566e+03 
       2.456869405434e-03       3.128718261077e+03 
       3.093015327960e-03       3.752877111851e+03 
       3.893875595438e-03       4.445218778513e+03 
       4.902098937462e-03       5.184165601373e+03 
       6.171376923500e-03       5.932015272900e+03 
       7.769303234755e-03       6.631336085024e+03 
       9.780973274167e-03       7.202132667034e+03 
       1.231351580693e-02       7.541842414918e+03 
       1.550179795787e-02       7.533321712157e+03 
       1.951560734791e-02       7.072778878315e+03 
       2.456865962277e-02       6.134283492566e+03 
       3.092344992525e-02       4.866070114662e+03 
       3.863779297315e-02       3.656824015078e+03 
       4.576329915953e-02       2.976186816260e+03 
       5.086241444486e-02       2.693169613732e+03 
       5.496269737661e-02       2.543599300763e+03 
       5.857525312793e-02       2.442577749911e+03 
       6.191893183185e-02       2.357746450737e+03 
       6.510575327005e-02       2.273676374960e+03 
       6.820130013385e-02       2.182462712075e+03 
       7.124788912472e-02       2.080555221409e+03 
       7.427492675487e-02       1.967418915430e+03 
       7.730409996773e-02       1.844770479305e+03 
       8.035221403215e-02       1.715966458159e+03 
       8.343285267747e-02       1.585400356987e+03 
       8.655740304860e-02       1.457887266536e+03 
       8.973571683065e-02       1.338071940432e+03 
       9.297655232732e-02       1.229917663906e+03 
       9.628787899968e-02       1.136325125280e+03 
       9.967709246698e-02       1.058902066425e+03 
       1.031511693532e-01       9.978698785653e+02 
       1.067167805826e-01       9.520699381059e+02 
       1.103803752634e-01       9.190370227971e+02 
       1.141482433054e-01       8.951440393623e+02 
       1.180265623867e-01       8.758719976942e+02 
       1.220214332520e-01       8.562851664759e+02 
       1.261389062499e-01       8.317530074384e+02 
       1.303850013067e-01       7.988444659392e+02 
       1.347657230589e-01       7.561685985387e+02 
       1.392870725541e-01       7.048387309159e+02 
       1.439550567188e-01       6.482932021654e+02 
       1.487756966579e-01       5.914323484528e+02 
       1.537550357646e-01       5.393270126771e+02 
       1.588991485642e-01       4.959345644600e+02 
       1.642141511808e-01       4.631998290606e+02 
       1.697062142959e-01       4.406884743332e+02 
       1.753815794529e-01       4.257205105412e+02 
       1.812465795523e-01       4.139903134416e+02 
       1.873076643775e-01       4.007347385011e+02 
       1.935714319904e-01       3.823339187731e+02 
       2.000446668491e-01       3.577624674642e+02 
       2.067343855256e-01       3.290248127302e+02 
       2.136478909524e-01       3.001327412718e+02 
       2.207928362136e-01       2.751321143263e+02 
       2.281772990299e-01       2.562822470914e+02 
       2.358098682830e-01       2.432242055490e+02 
       2.436997442055e-01       2.333429763787e+02 
       2.518568542466e-01       2.231642546114e+02 
       2.602919871461e-01       2.102880056738e+02 
       2.690169484438e-01       1.947667549729e+02 
       2.780447415765e-01       1.788229256575e+02 
       2.873897799319e-01       1.650467613232e+02 
       2.970681368442e-01       1.545287494220e+02 
       3.070978426650e-01       1.462842583180e+02 
       3.174992409171e-01       1.382539420789e+02 
       3.282954194364e-01       1.290938739106e+02 
       3.395127377298e-01       1.192283886533e+02 
       3.511814791653e-01       1.101275016447e+02 
       3.633366669982e-01       1.026353099513e+02 
       3.760190980653e-01       9.619327211453e+01 
       3.892766695276e-01       8.970258331965e+01 
       4.031661058995e-01       8.289987152857e+01 
       4.177552416704e-01       7.647112917004e+01 
       4.331260889249e-01       7.085980073508e+01 
       4.493790363731e-01       6.565421143898e+01 
       4.666387158942e-01       6.042241853541e+01 
       4.850623894604e-01       5.539943256972e+01 
       5.048522560241e-01       5.080812036495e+01 
       5.262740573815e-01       4.638764043474e+01 
       5.496861922369e-01       4.207301587444e+01 
       5.755871356081e-01       3.799323895931e+01 
       6.046963882978e-01       3.401278590350e+01 
       6.381005338609e-01       3.013275014036e+01 
       6.775345113496e-01       2.630330168087e+01 
       7.259654880751e-01       2.247289017975e+01 
       7.889046318319e-01       1.856631946578e+01 
       8.775119592198e-01       1.450843523581e+01 
       1.015036366073e+00       1.031679223110e+01 
       1.237148160076e+00       6.449658511950e+00 
       1.552216937620e+00       3.733105374769e+00 
       1.953985925319e+00       2.126092531305e+00 
       2.459921778042e+00       1.201653833803e+00 
       3.096858036774e+00       6.745710963283e-01 
       3.898713279213e+00       3.763483735758e-01 
       4.908189220501e+00       2.087836583097e-01 
       6.179044135583e+00       1.152260832489e-01 
       7.778955682883e+00       6.328957358613e-02 
       9.793124986402e+00       3.460964251287e-02 
       1.232881390626e+01       1.884865147004e-02 
