# Matter power spectrum P(k) at redshift z=0.5
# for k=1.71367e-07 to 10.8237 h/Mpc,
# number of wavenumbers equal to 140
#    1:k (h/Mpc)              2:P (Mpc/h)^3        
       1.713665880324e-07       1.249193309606e+00 
       2.157377524064e-07       1.561132082440e+00 
       2.715977387878e-07       1.950965761356e+00 
       3.419212951458e-07       2.438145650535e+00 
       4.304534072926e-07       3.046980278911e+00 
       5.419087330340e-07       3.807848306393e+00 
       6.822226748897e-07       4.758714305109e+00 
       8.588674619209e-07       5.947023044580e+00 
       1.081250073175e-06       7.432066796247e+00 
       1.361213193625e-06       9.287943762218e+00 
       1.713665880324e-06       1.160725522891e+01 
       2.157377524064e-06       1.450572587419e+01 
       2.715977387878e-06       1.812797768974e+01 
       3.419212951458e-06       2.265474545597e+01 
       4.304534072926e-06       2.831189348190e+01 
       5.419087330340e-06       3.538168289440e+01 
       6.822226748897e-06       4.421685043964e+01 
       8.588674619209e-06       5.525819885361e+01 
       1.081250073175e-05       6.905657165988e+01 
       1.361213193625e-05       8.630029932576e+01 
       1.713665880324e-05       1.078494673281e+02 
       2.157377524064e-05       1.347786785677e+02 
       2.715977387878e-05       1.684303698374e+02 
       3.419212951458e-05       2.104811963217e+02 
       4.304534072926e-05       2.630245077176e+02 
       5.419087330340e-05       3.286724620371e+02 
       6.822226748897e-05       4.106817540250e+02 
       8.588674619209e-05       5.131070448995e+02 
       1.081250073175e-04       6.409855052410e+02 
       1.361213193625e-04       8.005535415511e+02 
       1.713665880324e-04       9.994912154347e+02 
       2.157377524064e-04       1.247178651501e+03 
       2.715977387878e-04       1.554928904315e+03 
       3.419212951458e-04       1.936132051010e+03 
       4.304534072926e-04       2.406212201586e+03 
       5.419087330340e-04       2.982284327009e+03 
       6.822226748897e-04       3.682420254449e+03 
       8.588674619209e-04       4.524407012172e+03 
       1.081250073175e-03       5.523554576479e+03 
       1.361213193625e-03       6.688799822548e+03 
       1.713665880324e-03       8.017363635734e+03 
       2.157377524064e-03       9.488592179882e+03 
       2.715977387878e-03       1.105758018209e+04 
       3.419212951458e-03       1.265072553533e+04 
       4.304534072926e-03       1.416404031457e+04 
       5.419087330340e-03       1.546744161737e+04 
       6.822226748897e-03       1.640593623708e+04 
       8.588674619209e-03       1.685077824644e+04 
       1.081250073175e-02       1.666770163500e+04 
       1.361213193625e-02       1.576973592865e+04 
       1.713665880315e-02       1.414019845275e+04 
       2.157377482553e-02       1.188304553662e+04 
       2.715952188210e-02       9.286709171083e+03 
       3.416311987835e-02       6.835418502100e+03 
       4.222976910041e-02       5.100342341469e+03 
       4.872542769831e-02       4.283187178665e+03 
       5.350042064641e-02       3.861730568711e+03 
       5.748734659917e-02       3.565257822660e+03 
       6.107064002254e-02       3.316303121104e+03 
       6.442555447662e-02       3.087493223702e+03 
       6.764645455271e-02       2.868633786210e+03 
       7.079062184881e-02       2.656980695812e+03 
       7.389603320219e-02       2.453391682388e+03 
       7.698965138397e-02       2.260384877546e+03 
       8.009171566943e-02       2.080968148444e+03 
       8.321814626125e-02       1.917869713531e+03 
       8.638197860635e-02       1.773038759240e+03 
       8.959426302849e-02       1.647357248943e+03 
       9.286465257902e-02       1.540522687509e+03 
       9.620180034631e-02       1.451063991041e+03 
       9.961363558369e-02       1.376461036287e+03 
       1.031075600670e-01       1.313353999972e+03 
       1.066905903341e-01       1.257846706502e+03 
       1.103694622190e-01       1.205913296762e+03 
       1.141507084941e-01       1.153897430413e+03 
       1.180407169426e-01       1.099046678090e+03 
       1.220457739587e-01       1.039968006090e+03 
       1.261720973212e-01       9.768603418150e+02 
       1.304258608363e-01       9.114086565327e+02 
       1.348132129094e-01       8.463200477259e+02 
       1.393402906835e-01       7.846083937443e+02 
       1.440132311020e-01       7.288282119854e+02 
       1.488381800693e-01       6.804686969342e+02 
       1.538213007628e-01       6.396511702737e+02 
       1.589687820753e-01       6.051786859489e+02 
       1.642868481171e-01       5.749150924710e+02 
       1.697817696812e-01       5.464180292963e+02 
       1.754598785519e-01       5.176783234322e+02 
       1.813275855271e-01       4.877283076995e+02 
       1.873914030172e-01       4.568588154820e+02 
       1.936579730755e-01       4.263199574561e+02 
       2.001341017241e-01       3.976391856801e+02 
       2.068268004521e-01       3.718956111759e+02 
       2.137433357977e-01       3.492928029308e+02 
       2.208912879895e-01       3.291931631926e+02 
       2.282786197274e-01       3.105477641356e+02 
       2.359137563341e-01       2.924747063456e+02 
       2.438056787437e-01       2.746643671879e+02 
       2.519640311062e-01       2.573881768645e+02 
       2.603992452270e-01       2.411499778121e+02 
       2.691226846505e-01       2.262630347898e+02 
       2.781468119755e-01       2.126544620837e+02 
       2.874853840315e-01       1.999899645010e+02 
       2.971536809128e-01       1.879613871680e+02 
       3.071687766848e-01       1.764792912580e+02 
       3.175498619989e-01       1.656329350252e+02 
       3.283186321058e-01       1.555087132262e+02 
       3.394997581784e-01       1.460706907326e+02 
       3.511214659267e-01       1.372009259879e+02 
       3.632162539506e-01       1.288117428947e+02 
       3.758217962290e-01       1.208876577222e+02 
       3.889820903202e-01       1.134319607927e+02 
       4.027489379326e-01       1.064136118176e+02 
       4.171838818761e-01       9.978100081465e+01 
       4.323607801453e-01       9.349933658964e+01 
       4.483692860548e-01       8.754995818822e+01 
       4.653196437623e-01       8.190804808248e+01 
       4.833494383710e-01       7.654233562285e+01 
       5.026333277669e-01       7.142610967783e+01 
       5.233974611070e-01       6.653475999877e+01 
       5.459415197596e-01       6.183708208276e+01 
       5.706736525483e-01       5.730439524277e+01 
       5.981682382154e-01       5.290210483927e+01 
       6.292662522217e-01       4.858972120699e+01 
       6.652601778949e-01       4.431620156114e+01 
       7.082588762485e-01       4.001709699526e+01 
       7.619656782457e-01       3.560230974401e+01 
       8.334687177962e-01       3.094703583515e+01 
       9.374501729788e-01       2.589426890030e+01 
       1.103316163686e+00       2.041565007739e+01 
       1.364125137969e+00       1.519305637903e+01 
       1.715461948710e+00       1.118854857852e+01 
       2.159609118865e+00       8.287084039925e+00 
       2.718786710749e+00       6.138360704332e+00 
       3.422749679375e+00       4.515489275013e+00 
       4.308986549575e+00       3.277956747304e+00 
       5.424692666339e+00       2.335784724950e+00 
       6.829283448828e+00       1.627301168775e+00 
       8.597558478075e+00       1.105745945936e+00 
       1.082368484743e+01       7.321281527375e-01 
