# Matter power spectrum P(k) at redshift z=2.5
# for k=1.9844e-07 to 12.538 h/Mpc,
# number of wavenumbers equal to 140
#    1:k (h/Mpc)              2:P (Mpc/h)^3        
       1.984404819527e-07       2.106305426516e-01 
       2.498217654590e-07       2.621750421315e-01 
       3.145069689556e-07       3.263332649024e-01 
       3.959408154046e-07       4.061919811622e-01 
       4.984599540793e-07       5.055933404579e-01 
       6.275239029522e-07       6.293197244821e-01 
       7.900057879348e-07       7.833238363380e-01 
       9.945583618956e-07       9.750150954766e-01 
       1.252074795303e-06       1.213616117617e+00 
       1.576268777274e-06       1.510606430184e+00 
       1.984404819527e-06       1.880274771408e+00 
       2.498217654590e-06       2.340406538931e+00 
       3.145069689556e-06       2.913139468709e+00 
       3.959408154046e-06       3.626028697642e+00 
       4.984599540793e-06       4.513372443062e+00 
       6.275239029522e-06       5.617862062059e+00 
       7.900057879348e-06       6.992635826084e+00 
       9.945583618956e-06       8.703835137285e+00 
       1.252074795303e-05       1.083378600145e+01 
       1.576268777274e-05       1.348495846822e+01 
       1.984404819527e-05       1.678489387305e+01 
       2.498217654590e-05       2.089233559665e+01 
       3.145069689556e-05       2.600485566895e+01 
       3.959408154046e-05       3.236833898551e+01 
       4.984599540793e-05       4.028877118013e+01 
       6.275239029522e-05       5.014687723002e+01 
       7.900057879348e-05       6.241627550315e+01 
       9.945583618956e-05       7.768594306946e+01 
       1.252074795303e-04       9.668792128821e+01 
       1.576268777274e-04       1.203312989865e+02 
       1.984404819527e-04       1.497435369048e+02 
       2.498217654590e-04       1.863200312178e+02 
       3.145069689556e-04       2.317822595588e+02 
       3.959408154046e-04       2.882436036670e+02 
       4.984599540793e-04       3.582796246716e+02 
       6.275239029522e-04       4.449959981982e+02 
       7.900057879348e-04       5.520831220481e+02 
       9.945583618956e-04       6.838433217174e+02 
       1.252074795303e-03       8.451736080687e+02 
       1.576268777274e-03       1.041467399871e+03 
       1.984404819527e-03       1.278336593128e+03 
       2.498217654590e-03       1.561019534230e+03 
       3.145069689556e-03       1.893478460331e+03 
       3.959408154046e-03       2.277032574803e+03 
       4.984599540793e-03       2.708346949115e+03 
       6.275239029522e-03       3.176757180303e+03 
       7.900057879348e-03       3.660924982429e+03 
       9.945583618956e-03       4.125070798839e+03 
       1.252074795303e-02       4.515984754752e+03 
       1.576268777110e-02       4.764181775523e+03 
       1.984404451916e-02       4.796574826553e+03 
       2.498094257138e-02       4.570654713660e+03 
       3.136321032845e-02       4.132871631548e+03 
       3.806260968125e-02       3.695410931584e+03 
       4.298070110833e-02       3.438392508350e+03 
       4.676672647756e-02       3.275164700591e+03 
       5.002426091584e-02       3.151112023247e+03 
       5.299978325215e-02       3.044812829717e+03 
       5.581273187657e-02       2.945959624087e+03 
       5.853035477006e-02       2.848945575916e+03 
       6.119481367688e-02       2.750674120004e+03 
       6.383475983906e-02       2.649662429969e+03 
       6.647094224824e-02       2.545602030087e+03 
       6.911919521828e-02       2.439087311401e+03 
       7.179215076966e-02       2.331395810957e+03 
       7.450027865243e-02       2.224273741125e+03 
       7.725254826981e-02       2.119711553143e+03 
       8.005686643111e-02       2.019710255006e+03 
       8.292037617022e-02       1.926052512777e+03 
       8.584966613117e-02       1.840092082959e+03 
       8.885092046005e-02       1.762580175478e+03 
       9.193002795865e-02       1.693544294795e+03 
       9.509266262172e-02       1.632235792976e+03 
       9.834434361893e-02       1.577162443778e+03 
       1.016904802302e-01       1.526222549407e+03 
       1.051364056034e-01       1.476952985261e+03 
       1.086874021331e-01       1.426884282406e+03 
       1.123487205480e-01       1.373967837455e+03 
       1.161255943275e-01       1.316997946352e+03 
       1.200232507498e-01       1.255920942973e+03 
       1.240469196688e-01       1.191918234418e+03 
       1.282018409801e-01       1.127194982542e+03 
       1.324932716488e-01       1.064488642187e+03 
       1.369264931171e-01       1.006403090383e+03 
       1.415068198740e-01       9.547393461264e+02 
       1.462396099505e-01       9.100016603725e+02 
       1.511302780856e-01       8.712236259277e+02 
       1.561843123033e-01       8.361992965385e+02 
       1.614072946311e-01       8.021236472335e+02 
       1.668049266928e-01       7.665161665025e+02 
       1.723830609107e-01       7.281319931202e+02 
       1.781477380749e-01       6.874564589543e+02 
       1.841052320684e-01       6.464799253587e+02 
       1.902621026078e-01       6.077825491121e+02 
       1.966252569541e-01       5.733378353856e+02 
       2.032020217037e-01       5.436104973297e+02 
       2.100002259878e-01       5.173914321835e+02 
       2.170282977085e-01       4.924848361192e+02 
       2.242953748550e-01       4.669469081904e+02 
       2.318114344928e-01       4.401942301951e+02 
       2.395874427540e-01       4.132414422948e+02 
       2.476355301249e-01       3.878535036453e+02 
       2.559691976115e-01       3.652141360500e+02 
       2.646035610627e-01       3.451052372391e+02 
       2.735556432107e-01       3.262094276373e+02 
       2.828447260518e-01       3.072820715827e+02 
       2.924927803747e-01       2.881819621336e+02 
       3.025249950151e-01       2.697979758274e+02 
       3.129704364942e-01       2.529723621065e+02 
       3.238628811728e-01       2.375952540093e+02 
       3.352418786313e-01       2.228521306097e+02 
       3.471541293468e-01       2.082632476789e+02 
       3.596552962502e-01       1.941628739674e+02 
       3.728124256226e-01       1.810159753936e+02 
       3.867072403049e-01       1.686624773534e+02 
       4.014407088149e-01       1.566583871254e+02 
       4.171395264328e-01       1.450162366517e+02 
       4.339655410640e-01       1.339681690824e+02 
       4.521298584701e-01       1.233647772619e+02 
       4.719146541019e-01       1.130240347152e+02 
       4.937082116753e-01       1.030268996673e+02 
       5.180637742270e-01       9.326975230808e+01 
       5.458037148530e-01       8.365075827050e+01 
       5.782156889395e-01       7.409959644909e+01 
       6.174495533725e-01       6.446302375927e+01 
       6.673867612959e-01       5.456188944565e+01 
       7.356786330963e-01       4.416457813184e+01 
       8.383669149230e-01       3.312326777525e+01 
       1.004724958121e+00       2.207128742282e+01 
       1.254177849762e+00       1.327906757481e+01 
       1.578445287374e+00       7.752705505789e+00 
       1.987140486444e+00       4.476567421505e+00 
       2.501661648155e+00       2.560888840837e+00 
       3.149405420572e+00       1.452744937784e+00 
       3.964866516000e+00       8.178790722882e-01 
       4.991471211364e+00       4.572946980038e-01 
       6.283889950226e+00       2.540856097420e-01 
       7.910948743257e+00       1.403712509662e-01 
       9.959294404287e+00       7.714350669602e-02 
       1.253800880910e+01       4.219170170652e-02 
