# Matter power spectrum P(k) at redshift z=2.5
# for k=2.31414e-07 to 11.6142 h/Mpc,
# number of wavenumbers equal to 139
#    1:k (h/Mpc)              2:P (Mpc/h)^3        
       2.314140177178e-07       1.067448874861e-01 
       2.913329875503e-07       1.333082672981e-01 
       3.667665013210e-07       1.664819228396e-01 
       4.617316687079e-07       2.079108159970e-01 
       5.812857311665e-07       2.596492558954e-01 
       7.317953784789e-07       3.242627649239e-01 
       9.212757982006e-07       4.049552935503e-01 
       1.159817513626e-06       5.057280922809e-01 
       1.460123740947e-06       6.315781192105e-01 
       1.838186881842e-06       7.887458207731e-01 
       2.314140177178e-06       9.850245711945e-01 
       2.913329875503e-06       1.230147115875e+00 
       3.667665013210e-06       1.536268178312e+00 
       4.617316687079e-06       1.918567160645e+00 
       5.812857311665e-06       2.396000816577e+00 
       7.317953784789e-06       2.992243213960e+00 
       9.212757982006e-06       3.736859575865e+00 
       1.159817513626e-05       4.666772176834e+00 
       1.460123740947e-05       5.828090908083e+00 
       1.838186881842e-05       7.278399163261e+00 
       2.314140177178e-05       9.089608117266e+00 
       2.913329875503e-05       1.135152042596e+01 
       3.667665013210e-05       1.417627901578e+01 
       4.617316687079e-05       1.770391955075e+01 
       5.812857311665e-05       2.210929788430e+01 
       7.317953784789e-05       2.761072804849e+01 
       9.212757982006e-05       3.448074353362e+01 
       1.159817513626e-04       4.305948453120e+01 
       1.460123740947e-04       5.377131448349e+01 
       1.838186881842e-04       6.714537124244e+01 
       2.314140177178e-04       8.384084147330e+01 
       2.913329875503e-04       1.046777681880e+02 
       3.667665013210e-04       1.306740805511e+02 
       4.617316687079e-04       1.630891378490e+02 
       5.812857311665e-04       2.034732208578e+02 
       7.317953784789e-04       2.537209238191e+02 
       9.212757982006e-04       3.161243829490e+02 
       1.159817513626e-03       3.934202401102e+02 
       1.460123740947e-03       4.888219582154e+02 
       1.838186881842e-03       6.060206011854e+02 
       2.314140177178e-03       7.491098212147e+02 
       2.913329875503e-03       9.223627813343e+02 
       3.667665013210e-03       1.129822286108e+03 
       4.617316687079e-03       1.374631051160e+03 
       5.812857311665e-03       1.657941315411e+03 
       7.317953784789e-03       1.977331092133e+03 
       9.212757982006e-03       2.324642037901e+03 
       1.159817513626e-02       2.683273315015e+03 
       1.460123740947e-02       3.025469079444e+03 
       1.838186880871e-02       3.311278584170e+03 
       2.314138712874e-02       3.493095937412e+03 
       2.912976069979e-02       3.531585333143e+03 
       3.648582837531e-02       3.426975319748e+03 
       4.366280754486e-02       3.271290931676e+03 
       4.881232500460e-02       3.156972895967e+03 
       5.288394330916e-02       3.068655376762e+03 
       5.643918583856e-02       2.992025430405e+03 
       5.971322217749e-02       2.920482943137e+03 
       6.282387360531e-02       2.850570179635e+03 
       6.583907544736e-02       2.780347575693e+03 
       6.880217048006e-02       2.708771265150e+03 
       7.174301373032e-02       2.635415010397e+03 
       7.468346477645e-02       2.560322089851e+03 
       7.764036002635e-02       2.483902337864e+03 
       8.062723751952e-02       2.406842886624e+03 
       8.365539492838e-02       2.330014535305e+03 
       8.673456839207e-02       2.254370584769e+03 
       8.987338445607e-02       2.180839702279e+03 
       9.307967028053e-02       2.110217336558e+03 
       9.636067199477e-02       2.043064743920e+03 
       9.972321158388e-02       1.979627468668e+03 
       1.031738014642e-01       1.919783191855e+03 
       1.067187291999e-01       1.863032302328e+03 
       1.103641206871e-01       1.808540684053e+03 
       1.141159875236e-01       1.755240685027e+03 
       1.179802626055e-01       1.701987483465e+03 
       1.219628268886e-01       1.647754923581e+03 
       1.260695295230e-01       1.591841301378e+03 
       1.303062030872e-01       1.534039157449e+03 
       1.346786753209e-01       1.474721146275e+03 
       1.391927785442e-01       1.414801843603e+03 
       1.438543578120e-01       1.355562538432e+03 
       1.486692787617e-01       1.298364076280e+03 
       1.536434360577e-01       1.244310273920e+03 
       1.587827632984e-01       1.193951305312e+03 
       1.640932452338e-01       1.147117642689e+03 
       1.695809331226e-01       1.102955049600e+03 
       1.752519640515e-01       1.060180939454e+03 
       1.811125850319e-01       1.017511492078e+03 
       1.871691826889e-01       9.741271220398e+02 
       1.934283193685e-01       9.299925160983e+02 
       1.998967765099e-01       8.858705252353e+02 
       2.065816061777e-01       8.429875654534e+02 
       2.134901917265e-01       8.024778033650e+02 
       2.206303186935e-01       7.648621808673e+02 
       2.280102571974e-01       7.298253368376e+02 
       2.356388573800e-01       6.964221615246e+02 
       2.435256597879e-01       6.636256974771e+02 
       2.516810230768e-01       6.309147949748e+02 
       2.601162720730e-01       5.985353938820e+02 
       2.688438700903e-01       5.672503173827e+02 
       2.778776205400e-01       5.377475215954e+02 
       2.872329043855e-01       5.101407434896e+02 
       2.969269619986e-01       4.839398892252e+02 
       3.069792306604e-01       4.585020970519e+02 
       3.174117525839e-01       4.335674361303e+02 
       3.282496732903e-01       4.093948324177e+02 
       3.395218570408e-01       3.863895165515e+02 
       3.512616556536e-01       3.646325591350e+02 
       3.635078807710e-01       3.438208132616e+02 
       3.763060495307e-01       3.236472421098e+02 
       3.897100029500e-01       3.041206613266e+02 
       4.037840404855e-01       2.854226933456e+02 
       4.186057821062e-01       2.675562004093e+02 
       4.342700760310e-01       2.503272410526e+02 
       4.508944428289e-01       2.336343593639e+02 
       4.686268335260e-01       2.175255062923e+02 
       4.876569723540e-01       2.019660893189e+02 
       5.082334333839e-01       1.868298919519e+02 
       5.306902324707e-01       1.720680846389e+02 
       5.554898942892e-01       1.576222400629e+02 
       5.832964841526e-01       1.433703946565e+02 
       6.151063484709e-01       1.292029987325e+02 
       6.524975854719e-01       1.149479384458e+02 
       6.981425510979e-01       1.003783700209e+02 
       7.569477512178e-01       8.517160626266e+01 
       8.387453078433e-01       6.892372788066e+01 
       9.641299069455e-01       5.142475591460e+01 
       1.167406256478e+00       3.406724946986e+01 
       1.462329984604e+00       2.070820255657e+01 
       1.840725730344e+00       1.229124845627e+01 
       2.317334778679e+00       7.207693938532e+00 
       2.917351638752e+00       4.182162973201e+00 
       3.672728113164e+00       2.403690366374e+00 
       4.623690752273e+00       1.369741720741e+00 
       5.820881784314e+00       7.745342283616e-01 
       7.328055997323e+00       4.349101447962e-01 
       9.225475914081e+00       2.426568775688e-01 
       1.161418606413e+01       1.346057643538e-01 
