# Matter power spectrum P(k) at redshift z=1.5
# for k=2.12079e-07 to 10.6421 h/Mpc,
# number of wavenumbers equal to 139
#    1:k (h/Mpc)              2:P (Mpc/h)^3        
       2.120792838678e-07       2.501553676940e-01 
       2.669919997763e-07       3.131841869856e-01 
       3.361230132642e-07       3.920936650201e-01 
       4.231538028871e-07       4.908850717740e-01 
       5.327190755519e-07       6.145678317181e-01 
       6.706535815598e-07       7.694135371250e-01 
       8.443028363364e-07       9.632739619441e-01 
       1.062914295914e-06       1.205979201793e+00 
       1.338129817685e-06       1.509836128164e+00 
       1.684605631763e-06       1.890252432120e+00 
       2.120792838678e-06       2.366517898021e+00 
       2.669919997763e-06       2.962782523111e+00 
       3.361230132642e-06       3.709281074642e+00 
       4.231538028871e-06       4.643866169584e+00 
       5.327190755519e-06       5.813927595541e+00 
       6.706535815598e-06       7.278795161547e+00 
       8.443028363364e-06       9.112746844816e+00 
       1.062914295914e-05       1.140877463011e+01 
       1.338129817685e-05       1.428329870246e+01 
       1.684605631763e-05       1.788206848506e+01 
       2.120792838678e-05       2.238754860874e+01 
       2.669919997763e-05       2.802816213254e+01 
       3.361230132642e-05       3.508985528772e+01 
       4.231538028871e-05       4.393056144729e+01 
       5.327190755519e-05       5.499828041419e+01 
       6.706535815598e-05       6.885365561987e+01 
       8.443028363364e-05       8.619812628779e+01 
       1.062914295914e-04       1.079089488887e+02 
       1.338129817685e-04       1.350826018410e+02 
       1.684605631763e-04       1.690882635419e+02 
       2.120792838678e-04       2.116330882799e+02 
       2.669919997763e-04       2.648407116155e+02 
       3.361230132642e-04       3.313434800881e+02 
       4.231538028871e-04       4.143868617428e+02 
       5.327190755519e-04       5.179409093204e+02 
       6.706535815598e-04       6.468085977123e+02 
       8.443028363364e-04       8.067156629039e+02 
       1.062914295914e-03       1.004362168571e+03 
       1.338129817685e-03       1.247402319927e+03 
       1.684605631763e-03       1.544264349477e+03 
       2.120792838678e-03       1.903645089169e+03 
       2.669919997763e-03       2.333570981657e+03 
       3.361230132642e-03       2.839936361968e+03 
       4.231538028871e-03       3.424326195259e+03 
       5.327190755519e-03       4.073110706376e+03 
       6.706535815598e-03       4.780886557113e+03 
       8.443028363364e-03       5.508546923591e+03 
       1.062914295914e-02       6.200733795292e+03 
       1.338129817685e-02       6.776939591884e+03 
       1.684605631717e-02       7.133927781426e+03 
       2.120792694381e-02       7.164418474765e+03 
       2.669856920075e-02       6.805961059070e+03 
       3.355675370695e-02       6.122091763753e+03 
       4.110666394909e-02       5.407436524864e+03 
       4.684232576622e-02       4.979384527153e+03 
       5.116361492276e-02       4.717798779666e+03 
       5.483429777259e-02       4.523283807669e+03 
       5.816389196952e-02       4.358641286886e+03 
       6.129835438886e-02       4.206860113760e+03 
       6.431826463506e-02       4.059077546494e+03 
       6.727342633116e-02       3.910606166928e+03 
       7.019731460185e-02       3.759333792183e+03 
       7.311395844283e-02       3.604943391631e+03 
       7.604156028497e-02       3.448434107051e+03 
       7.899454993785e-02       3.291746620268e+03 
       8.198482211079e-02       3.137415560459e+03 
       8.502251891832e-02       2.988223314394e+03 
       8.811654460911e-02       2.846859318744e+03 
       9.127491537400e-02       2.715600645796e+03 
       9.450500356621e-02       2.596034849875e+03 
       9.781371201227e-02       2.488847128446e+03 
       1.012076006515e-01       2.393691310970e+03 
       1.046929798118e-01       2.309164397542e+03 
       1.082759795964e-01       2.232903501060e+03 
       1.119626018294e-01       2.161823502923e+03 
       1.157587590699e-01       2.092502513822e+03 
       1.196703039413e-01       2.021694144481e+03 
       1.237030511865e-01       1.946902418158e+03 
       1.278627943072e-01       1.866903877294e+03 
       1.321553182739e-01       1.782069576285e+03 
       1.365864095492e-01       1.694354709789e+03 
       1.411618645064e-01       1.606897285014e+03 
       1.458874972202e-01       1.523286339822e+03 
       1.507691475441e-01       1.446671859443e+03 
       1.558126903436e-01       1.378950082288e+03 
       1.610240467322e-01       1.320244545044e+03 
       1.664091981392e-01       1.268840603069e+03 
       1.719742040279e-01       1.221642783096e+03 
       1.777252240742e-01       1.175107015800e+03 
       1.836685456153e-01       1.126425595155e+03 
       1.898106171825e-01       1.074549314186e+03 
       1.961580889483e-01       1.020566137578e+03 
       2.027178609585e-01       9.671681345586e+02 
       2.094971400817e-01       9.173885459227e+02 
       2.165035067161e-01       8.731983319321e+02 
       2.237449924514e-01       8.346390733977e+02 
       2.312301701122e-01       7.999125043212e+02 
       2.389682579289e-01       7.664086213407e+02 
       2.469692400165e-01       7.321724683964e+02 
       2.552440059288e-01       6.969637299530e+02 
       2.638045128302e-01       6.621906947856e+02 
       2.726639748582e-01       6.297413466929e+02 
       2.818370856071e-01       6.005735985077e+02 
       2.913402814710e-01       5.741111569500e+02 
       3.011920559870e-01       5.488619178537e+02 
       3.114133385674e-01       5.237161002947e+02 
       3.220279554148e-01       4.987837836141e+02 
       3.330631964970e-01       4.750149470534e+02 
       3.445505209392e-01       4.530558094343e+02 
       3.565264452223e-01       4.325886442347e+02 
       3.690336759005e-01       4.128213636245e+02 
       3.821225739492e-01       3.934430556815e+02 
       3.958530757969e-01       3.748151984502e+02 
       4.102972539734e-01       3.572404122146e+02 
       4.255427906201e-01       3.404698504867e+02 
       4.416977816442e-01       3.241511202743e+02 
       4.588975271525e-01       3.083281371736e+02 
       4.773143676879e-01       2.931134972266e+02 
       4.971723361258e-01       2.783242411502e+02 
       5.187696950168e-01       2.638154601017e+02 
       5.425149177155e-01       2.495828775220e+02 
       5.689866861643e-01       2.354714585012e+02 
       5.990391876926e-01       2.213277420021e+02 
       6.339984039240e-01       2.069613484705e+02 
       6.760547398540e-01       1.920721036271e+02 
       7.291126609668e-01       1.762155717149e+02 
       8.007673759929e-01       1.586885279980e+02 
       9.068830641547e-01       1.384682035341e+02 
       1.077915079902e+00       1.148937802874e+02 
       1.340499214667e+00       9.061019972564e+01 
       1.686662696568e+00       6.975856556567e+01 
       2.123371528041e+00       5.257097772390e+01 
       2.673166351796e+00       3.851485114103e+01 
       3.365317050223e+00       2.728586008711e+01 
       4.236683153269e+00       1.865068542101e+01 
       5.333668083371e+00       1.231883127398e+01 
       6.714690288231e+00       7.896931167730e+00 
       8.453294236182e+00       4.939210691641e+00 
       1.064206692730e+01       3.029510814005e+00 
