# Matter power spectrum P(k) at redshift z=0.5
# for k=1.90052e-07 to 12.0069 h/Mpc,
# number of wavenumbers equal to 140
#    1:k (h/Mpc)              2:P (Mpc/h)^3        
       1.900519824239e-07       8.613087432561e-01 
       2.392612702353e-07       1.077429482738e+00 
       3.012120931573e-07       1.347779525802e+00 
       3.792035584154e-07       1.685966160894e+00 
       4.773889959320e-07       2.109011034378e+00 
       6.009971382897e-07       2.638206884833e+00 
       7.566105698084e-07       3.300189249477e+00 
       9.525162731639e-07       4.128277082363e+00 
       1.199146941434e-06       5.164149759205e+00 
       1.509636557046e-06       6.459944870685e+00 
       1.900519824239e-06       8.080882381969e+00 
       2.392612702353e-06       1.010854722130e+01 
       3.012120931573e-06       1.264499548443e+01 
       3.792035584154e-06       1.581789085752e+01 
       4.773889959320e-06       1.978692965523e+01 
       6.009971382897e-06       2.475187759351e+01 
       7.566105698084e-06       3.096262227545e+01 
       9.525162731639e-06       3.873174631288e+01 
       1.199146941434e-05       4.845025184908e+01 
       1.509636557046e-05       6.060722381658e+01 
       1.900519824239e-05       7.581441351622e+01 
       2.392612702353e-05       9.483696374842e+01 
       3.012120931573e-05       1.186317900740e+02 
       3.792035584154e-05       1.483954869265e+02 
       4.773889959320e-05       1.856240450081e+02 
       6.009971382897e-05       2.321871395096e+02 
       7.566105698084e-05       2.904202433898e+02 
       9.525162731639e-05       3.632382517275e+02 
       1.199146941434e-04       4.542744850613e+02 
       1.509636557046e-04       5.680485003761e+02 
       1.900519824239e-04       7.101643931745e+02 
       2.392612702353e-04       8.875370885336e+02 
       3.012120931573e-04       1.108635933985e+03 
       3.792035584154e-04       1.383721408025e+03 
       4.773889959320e-04       1.725032989452e+03 
       6.009971382897e-04       2.146870413901e+03 
       7.566105698084e-04       2.665501951808e+03 
       9.525162731639e-04       3.298797483293e+03 
       1.199146941434e-03       4.065315691107e+03 
       1.509636557046e-03       4.982370818106e+03 
       1.900519824239e-03       6.062905649173e+03 
       2.392612702353e-03       7.311118672259e+03 
       3.012120931573e-03       8.716711601335e+03 
       3.792035584154e-03       1.024843524306e+04 
       4.773889959320e-03       1.184735767798e+04 
       6.009971382897e-03       1.339692580156e+04 
       7.566105698084e-03       1.481079876866e+04 
       9.525162731639e-03       1.591279011095e+04 
       1.199146941434e-02       1.652235928683e+04 
       1.509636557046e-02       1.645966850192e+04 
       1.900519822124e-02       1.559258932155e+04 
       2.392610055027e-02       1.392219628512e+04 
       3.011571211221e-02       1.169190676378e+04 
       3.765955301869e-02       9.458390347361e+03 
       4.474527989461e-02       7.992686528929e+03 
       4.981491949954e-02       7.230731277560e+03 
       5.387135878382e-02       6.726408855405e+03 
       5.743591435391e-02       6.326499992939e+03 
       6.073026544862e-02       5.975235567840e+03 
       6.386716108157e-02       5.648507211564e+03 
       6.691231297496e-02       5.335569910873e+03 
       6.990797901261e-02       5.032444248780e+03 
       7.288344771719e-02       4.738924715862e+03 
       7.586027257194e-02       4.456910656095e+03 
       7.885512510820e-02       4.189300925965e+03 
       8.188145992757e-02       3.939177484373e+03 
       8.495054068912e-02       3.709180988347e+03 
       8.807210085391e-02       3.501048155243e+03 
       9.125478493302e-02       3.315304554161e+03 
       9.450645212613e-02       3.151111205166e+03 
       9.783439049743e-02       3.006265124599e+03 
       1.012454711180e-01       2.877356465765e+03 
       1.047462607843e-01       2.760084925172e+03 
       1.083431054407e-01       2.649732654127e+03 
       1.120421924373e-01       2.541766482326e+03 
       1.158495972201e-01       2.432500916275e+03 
       1.197713184211e-01       2.319702152493e+03 
       1.238133042375e-01       2.202980310712e+03 
       1.279814722853e-01       2.083828382273e+03 
       1.322817246342e-01       1.965240386374e+03 
       1.367199594178e-01       1.850961039086e+03 
       1.413020802061e-01       1.744541614316e+03 
       1.460340041893e-01       1.648446307502e+03 
       1.509216701395e-01       1.563443658718e+03 
       1.559710470558e-01       1.488443177121e+03 
       1.611881443728e-01       1.420833183699e+03 
       1.665790245831e-01       1.357261739482e+03 
       1.721498191158e-01       1.294669646151e+03 
       1.779067483003e-01       1.231251011339e+03 
       1.838561462422e-01       1.166961830249e+03 
       1.900044914355e-01       1.103325147221e+03 
       1.963584439475e-01       1.042591953802e+03 
       2.029248900386e-01       9.866460055602e+02 
       2.097109951273e-01       9.361723994217e+02 
       2.167242660936e-01       8.904653788131e+02 
       2.239726240455e-01       8.479274675962e+02 
       2.314644888608e-01       8.069697942231e+02 
       2.392088770907e-01       7.668060131387e+02 
       2.472155151821e-01       7.276815018365e+02 
       2.554949704857e-01       6.904380915438e+02 
       2.640588031910e-01       6.557708647475e+02 
       2.729197432259e-01       6.237257736799e+02 
       2.820918973457e-01       5.937577086816e+02 
       2.915909932044e-01       5.652154161186e+02 
       3.014346692877e-01       5.378028415966e+02 
       3.116428223823e-01       5.116396708003e+02 
       3.222380280352e-01       4.869469157289e+02 
       3.332460546281e-01       4.637285175360e+02 
       3.446964988531e-01       4.417586096357e+02 
       3.566235804453e-01       4.208110839417e+02 
       3.690671483977e-01       4.008196043384e+02 
       3.820739717350e-01       3.818040183895e+02 
       3.956994187465e-01       3.637207825253e+02 
       4.100096750333e-01       3.464528454676e+02 
       4.250847222803e-01       3.299063165509e+02 
       4.410224125375e-01       3.140361046111e+02 
       4.579441555843e-01       2.987857820397e+02 
       4.760030418126e-01       2.840710751689e+02 
       4.953957485046e-01       2.698143596732e+02 
       5.163805172205e-01       2.559409771231e+02 
       5.393052431144e-01       2.423557312493e+02 
       5.646531467827e-01       2.289510060944e+02 
       5.931205831614e-01       2.155957614349e+02 
       6.257570978153e-01       2.021173485405e+02 
       6.642343923015e-01       1.882806030229e+02 
       7.114028986842e-01       1.737392597401e+02 
       7.725384726054e-01       1.579560785777e+02 
       8.582917408117e-01       1.400844378583e+02 
       9.908975267041e-01       1.190642587979e+02 
       1.205393793459e+00       9.528188160394e+01 
       1.511715306913e+00       7.309120698058e+01 
       1.902973814759e+00       5.498739662853e+01 
       2.395701145790e+00       4.050044214893e+01 
       3.016009050645e+00       2.907299695894e+01 
       3.796930436058e+00       2.027375632135e+01 
       4.780052212768e+00       1.371590241112e+01 
       6.017729200356e+00       9.013084276600e+00 
       7.575872211624e+00       5.770816141585e+00 
       9.537458043719e+00       3.614268214243e+00 
       1.200694829516e+01       2.223085618128e+00 
