# Matter power spectrum P(k) at redshift z=0.5
# for k=1.649e-07 to 10.4155 h/Mpc,
# number of wavenumbers equal to 140
#    1:k (h/Mpc)              2:P (Mpc/h)^3        
       1.649003697786e-07       1.106069165741e+00 
       2.075972659285e-07       1.386667334833e+00 
       2.613494734964e-07       1.738450321435e+00 
       3.290194935436e-07       2.179476967617e+00 
       4.142110013977e-07       2.732387453865e+00 
       5.214607555043e-07       3.425565535270e+00 
       6.564801963578e-07       4.294595624722e+00 
       8.264596015344e-07       5.384089520524e+00 
       1.040450994193e-06       6.749976551767e+00 
       1.309850196316e-06       8.462374702666e+00 
       1.649003697786e-06       1.060919009544e+01 
       2.075972659285e-06       1.330062959472e+01 
       2.613494734964e-06       1.667485815460e+01 
       3.290194935436e-06       2.090509125625e+01 
       4.142110013977e-06       2.620848639069e+01 
       5.214607555043e-06       3.285728975695e+01 
       6.564801963578e-06       4.119280983602e+01 
       8.264596015344e-06       5.164293409015e+01 
       1.040450994193e-05       6.474408584119e+01 
       1.309850196316e-05       8.116874415399e+01 
       1.649003697786e-05       1.017599309139e+02 
       2.075972659285e-05       1.275744184651e+02 
       2.613494734964e-05       1.599368421099e+02 
       3.290194935436e-05       2.005074282988e+02 
       4.142110013977e-05       2.513666826396e+02 
       5.214607555043e-05       3.151211223155e+02 
       6.564801963578e-05       3.950349623337e+02 
       8.264596015344e-05       4.951934961521e+02 
       1.040450994193e-04       6.207045663713e+02 
       1.309850196316e-04       7.779446155690e+02 
       1.649003697786e-04       9.748546130265e+02 
       2.075972659285e-04       1.221287427868e+03 
       2.613494734964e-04       1.529400178812e+03 
       3.290194935436e-04       1.914071004188e+03 
       4.142110013977e-04       2.393299903436e+03 
       5.214607555043e-04       2.988532891382e+03 
       6.564801963578e-04       3.724830984190e+03 
       8.264596015344e-04       4.630752016594e+03 
       1.040450994193e-03       5.737610953523e+03 
       1.309850196316e-03       7.077510971671e+03 
       1.649003697786e-03       8.679648388252e+03 
       2.075972659285e-03       1.056455568752e+04 
       2.613494734964e-03       1.273571735207e+04 
       3.290194935436e-03       1.516870182254e+04 
       4.142110013977e-03       1.777826626535e+04 
       5.214607555043e-03       2.046402707232e+04 
       6.564801963578e-03       2.300586704211e+04 
       8.264596015344e-03       2.509691297888e+04 
       1.040450994193e-02       2.632215536544e+04 
       1.309850196315e-02       2.618711848947e+04 
       1.649003688317e-02       2.424749952794e+04 
       2.075964822625e-02       2.042024513793e+04 
       2.612333655816e-02       1.542876558075e+04 
       3.249128259700e-02       1.103549767252e+04 
       3.796124447060e-02       8.884971943762e+03 
       4.191144401682e-02       8.050472585399e+03 
       4.515263545718e-02       7.656290726971e+03 
       4.803888923686e-02       7.429220963208e+03 
       5.072667313771e-02       7.257850250358e+03 
       5.329823253549e-02       7.084741673855e+03 
       5.580263905565e-02       6.877369929529e+03 
       5.827200652786e-02       6.618501619157e+03 
       6.072890115499e-02       6.302405396077e+03 
       6.319011817881e-02       5.932800651610e+03 
       6.566877341259e-02       5.521066172961e+03 
       6.817553924793e-02       5.084169413709e+03 
       7.071941403405e-02       4.642235464427e+03 
       7.330822169044e-02       4.215942798185e+03 
       7.594894764302e-02       3.824076831031e+03 
       7.864797130612e-02       3.481583588337e+03 
       8.141123082903e-02       3.198350191537e+03 
       8.424434210625e-02       2.978729088320e+03 
       8.715268605502e-02       2.821603183788e+03 
       9.014147334309e-02       2.720681813610e+03 
       9.321579275777e-02       2.664810545892e+03 
       9.638064750462e-02       2.638375420755e+03 
       9.964098249123e-02       2.622231239745e+03 
       1.030017048403e-01       2.595725443175e+03 
       1.064676993378e-01       2.540085475019e+03 
       1.100438401633e-01       2.442678608596e+03 
       1.137350000117e-01       2.300778361966e+03 
       1.175460575576e-01       2.123076762074e+03 
       1.214819041120e-01       1.927765650225e+03 
       1.255474502575e-01       1.737503568149e+03 
       1.297476332043e-01       1.573151601846e+03 
       1.340874255880e-01       1.448657139987e+03 
       1.385718464093e-01       1.368444564145e+03 
       1.432059748104e-01       1.327064923713e+03 
       1.479949673709e-01       1.310311471667e+03 
       1.529440796052e-01       1.298021976568e+03 
       1.580586923451e-01       1.269632662277e+03 
       1.633443436998e-01       1.212001062492e+03 
       1.688067673140e-01       1.125711424440e+03 
       1.744519376863e-01       1.024989355452e+03 
       1.802861233891e-01       9.302454164355e+02 
       1.863159491467e-01       8.579557388428e+02 
       1.925484678973e-01       8.138461380970e+02 
       1.989912442066e-01       7.915286839417e+02 
       2.056524507304e-01       7.758309464654e+02 
       2.125409798667e-01       7.504114693314e+02 
       2.196665733346e-01       7.075175953507e+02 
       2.270399732008e-01       6.529943543387e+02 
       2.346730989144e-01       6.010650972507e+02 
       2.425792562878e-01       5.631502879532e+02 
       2.507733861928e-01       5.402133256713e+02 
       2.592723632017e-01       5.232581055890e+02 
       2.680953577356e-01       5.010858192395e+02 
       2.772642798544e-01       4.702051709656e+02 
       2.868043291758e-01       4.373582750210e+02 
       2.967446843678e-01       4.112380068849e+02 
       3.071193784856e-01       3.931004698263e+02 
       3.179684251132e-01       3.764786790942e+02 
       3.293392879955e-01       3.557925078442e+02 
       3.412888288313e-01       3.333118145345e+02 
       3.538859328752e-01       3.145352694378e+02 
       3.672151150429e-01       2.993639855646e+02 
       3.813815770973e-01       2.832929346205e+02 
       3.965184683542e-01       2.659565753972e+02 
       4.127975918087e-01       2.506548719267e+02 
       4.304456805114e-01       2.365679549415e+02 
       4.497700318734e-01       2.216288137179e+02 
       4.712005765539e-01       2.075154753418e+02 
       4.953623364672e-01       1.936458554625e+02 
       5.232075411428e-01       1.795239831491e+02 
       5.562731956537e-01       1.653189923994e+02 
       5.972231193214e-01       1.505048554643e+02 
       6.510811703970e-01       1.345943448847e+02 
       7.281482291125e-01       1.168880679022e+02 
       8.495687377350e-01       9.677036997441e+01 
       1.043603091352e+00       7.570735697593e+01 
       1.311270632592e+00       5.780205348802e+01 
       1.650740053968e+00       4.384424640073e+01 
       2.078158393064e+00       3.289527893236e+01 
       2.616246410640e+00       2.427492814177e+01 
       3.293659089871e+00       1.753660465003e+01 
       4.146471126025e+00       1.235596694229e+01 
       5.220097869823e+00       8.469372702762e+00 
       6.571713860373e+00       5.643487613331e+00 
       8.273297577864e+00       3.660837029508e+00 
       1.041546456011e+01       2.318724944532e+00 
