# Matter power spectrum P(k) at redshift z=1
# for k=1.73166e-07 to 10.9397 h/Mpc,
# number of wavenumbers equal to 140
#    1:k (h/Mpc)              2:P (Mpc/h)^3        
       1.731663480689e-07       5.959966172820e-01 
       2.180035160515e-07       7.465756041752e-01 
       2.744501662177e-07       9.351984831493e-01 
       3.455122885226e-07       1.171477071181e+00 
       4.349742001082e-07       1.467451617257e+00 
       5.476000739911e-07       1.838204346845e+00 
       6.893876486477e-07       2.302628018483e+00 
       8.678876294597e-07       2.884388655078e+00 
       1.092605791309e-06       3.613131507723e+00 
       1.375509195752e-06       4.525991703167e+00 
       1.731663480689e-06       5.669486545751e+00 
       2.180035160515e-06       7.101885893756e+00 
       2.744501662177e-06       8.896181374489e+00 
       3.455122885226e-06       1.114380569874e+01 
       4.349742001082e-06       1.395929151136e+01 
       5.476000739911e-06       1.748610701262e+01 
       6.893876486477e-06       2.190396535123e+01 
       8.678876294597e-06       2.743797959749e+01 
       1.092605791309e-05       3.437012836504e+01 
       1.375509195752e-05       4.305361366763e+01 
       1.731663480689e-05       5.393083710633e+01 
       2.180035160515e-05       6.755589964081e+01 
       2.744501662177e-05       8.462274990221e+01 
       3.455122885226e-05       1.060003728050e+02 
       4.349742001082e-05       1.327767270683e+02 
       5.476000739911e-05       1.663135035598e+02 
       6.893876486477e-05       2.083141648665e+02 
       8.678876294597e-05       2.609080848607e+02 
       1.092605791309e-04       3.267538071014e+02 
       1.375509195752e-04       4.091642252324e+02 
       1.731663480689e-04       5.122553642995e+02 
       2.180035160515e-04       6.411175630437e+02 
       2.744501662177e-04       8.020019563867e+02 
       3.455122885226e-04       1.002504883892e+03 
       4.349742001082e-04       1.251718173525e+03 
       5.476000739911e-04       1.560298391344e+03 
       6.893876486477e-04       1.940401730086e+03 
       8.678876294597e-04       2.405425013926e+03 
       1.092605791309e-03       2.969409104949e+03 
       1.375509195752e-03       3.645735574098e+03 
       1.731663480689e-03       4.444777026408e+03 
       2.180035160515e-03       5.370589817239e+03 
       2.744501662177e-03       6.416582669225e+03 
       3.455122885226e-03       7.560485476121e+03 
       4.349742001082e-03       8.758316296205e+03 
       5.476000739911e-03       9.933586362073e+03 
       6.893876486477e-03       1.099271958028e+04 
       8.678876294597e-03       1.179612208971e+04 
       1.092605791309e-02       1.217804013931e+04 
       1.375509195752e-02       1.195981772896e+04 
       1.731663478197e-02       1.099992120630e+04 
       2.180032235084e-02       9.301079813028e+03 
       2.743925327438e-02       7.156935553711e+03 
       3.428982439530e-02       5.220721425422e+03 
       4.063714596744e-02       4.187952359960e+03 
       4.517893949572e-02       3.783145715822e+03 
       4.882776426125e-02       3.579695659840e+03 
       5.204102118836e-02       3.445637460143e+03 
       5.501431156014e-02       3.331677168809e+03 
       5.784763838184e-02       3.214758590046e+03 
       6.059950046070e-02       3.083494212829e+03 
       6.330762041208e-02       2.933308433840e+03 
       6.599819957823e-02       2.764358613850e+03 
       6.869055347843e-02       2.580292376477e+03 
       7.139964475451e-02       2.387202565202e+03 
       7.413756426088e-02       2.192587176343e+03 
       7.691444515353e-02       2.004309161065e+03 
       7.973905233146e-02       1.829638881850e+03 
       8.261917648761e-02       1.674481307866e+03 
       8.556190550854e-02       1.542860644388e+03 
       8.857381604836e-02       1.436672983263e+03 
       9.166111148469e-02       1.355653854195e+03 
       9.482972284597e-02       1.297472867683e+03 
       9.808538353208e-02       1.257892004282e+03 
       1.014336850892e-01       1.231003075371e+03 
       1.048801190434e-01       1.209654132996e+03 
       1.084301083407e-01       1.186214058999e+03 
       1.120890309833e-01       1.153740770706e+03 
       1.158622378203e-01       1.107403628596e+03 
       1.197550660245e-01       1.045749951377e+03 
       1.237728495109e-01       9.712738423432e+02 
       1.279209273626e-01       8.898954187495e+02 
       1.322046512127e-01       8.093913186219e+02 
       1.366293924507e-01       7.373034061604e+02 
       1.412005500749e-01       6.790650832989e+02 
       1.459235599826e-01       6.368681627272e+02 
       1.508039064691e-01       6.093588867270e+02 
       1.558471366950e-01       5.920121980458e+02 
       1.610588788728e-01       5.781637994103e+02 
       1.664448649194e-01       5.608368691794e+02 
       1.720109583210e-01       5.351596340662e+02 
       1.777631879660e-01       5.003844274102e+02 
       1.837077887286e-01       4.601743932794e+02 
       1.898512496250e-01       4.206955778035e+02 
       1.962003704481e-01       3.875770070485e+02 
       2.027623278980e-01       3.634667294075e+02 
       2.095447524040e-01       3.472035737523e+02 
       2.165558170814e-01       3.346578749531e+02 
       2.238043406071e-01       3.209169291127e+02 
       2.312999062601e-01       3.030313024331e+02 
       2.390529999912e-01       2.816719078356e+02 
       2.470751712051e-01       2.602730780590e+02 
       2.553792210178e-01       2.422764910159e+02 
       2.639794241863e-01       2.287289438249e+02 
       2.728917928121e-01       2.178961113129e+02 
       2.821343924706e-01       2.069405899863e+02 
       2.917277248715e-01       1.943589850876e+02 
       3.016951958804e-01       1.810635946583e+02 
       3.120636942796e-01       1.690442124254e+02 
       3.228643158522e-01       1.591555015304e+02 
       3.341332805275e-01       1.504388437765e+02 
       3.459131094137e-01       1.415194057099e+02 
       3.582541567852e-01       1.322757226153e+02 
       3.712166346798e-01       1.236467616678e+02 
       3.848733334115e-01       1.160441566627e+02 
       3.993133449415e-01       1.088581803459e+02 
       4.146472640452e-01       1.016457217549e+02 
       4.310146226656e-01       9.475898784197e+01 
       4.485947967805e-01       8.838682761821e+01 
       4.676234918128e-01       8.218860629998e+01 
       4.884185316391e-01       7.613875258239e+01 
       5.114218489834e-01       7.035125505702e+01 
       5.372711402620e-01       6.465169216940e+01 
       5.669290952900e-01       5.903739402239e+01 
       6.019321361365e-01       5.341494959244e+01 
       6.449064558436e-01       4.769153438328e+01 
       7.007267501250e-01       4.171672510230e+01 
       7.792586263964e-01       3.529853951991e+01 
       9.010631498905e-01       2.830571730425e+01 
       1.097846856521e+00       2.124611556902e+01 
       1.377332801408e+00       1.553197627432e+01 
       1.733831285360e+00       1.144181396913e+01 
       2.182763560717e+00       8.475823745546e+00 
       2.747936513931e+00       6.268930266609e+00 
       3.459447107385e+00       4.597037188056e+00 
       4.355185874245e+00       3.321083192843e+00 
       5.482854170174e+00       2.351372840970e+00 
       6.902504443994e+00       1.625365208337e+00 
       8.689738249566e+00       1.094449919057e+00 
       1.093973230422e+01       7.173281692622e-01 
