# Matter power spectrum P(k) at redshift z=0
# for k=1.84536e-07 to 11.6557 h/Mpc,
# number of wavenumbers equal to 140
#    1:k (h/Mpc)              2:P (Mpc/h)^3        
       1.845363078039e-07       1.611327834955e+00 
       2.323174472930e-07       2.000110128655e+00 
       2.924703380003e-07       2.482698082194e+00 
       3.681983407047e-07       3.081725189043e+00 
       4.635342476935e-07       3.825285966620e+00 
       5.835550436583e-07       4.748253595119e+00 
       7.346522736421e-07       5.893915475903e+00 
       9.248724161204e-07       7.316003417045e+00 
       1.164345387321e-06       9.081213659817e+00 
       1.465823996204e-06       1.127233493171e+01 
       1.845363078039e-06       1.399213122467e+01 
       2.323174472930e-06       1.736816138572e+01 
       2.924703380003e-06       2.155876152925e+01 
       3.681983407047e-06       2.676047078309e+01 
       4.635342476935e-06       3.321724851941e+01 
       5.835550436583e-06       4.123191512009e+01 
       7.346522736421e-06       5.118035238148e+01 
       9.248724161204e-06       6.352912862833e+01 
       1.164345387321e-05       7.885737335443e+01 
       1.465823996204e-05       9.788392371043e+01 
       1.845363078039e-05       1.215010089935e+02 
       2.323174472930e-05       1.508160390869e+02 
       2.924703380003e-05       1.872034295457e+02 
       3.681983407047e-05       2.323688404952e+02 
       4.635342476935e-05       2.884287374062e+02 
       5.835550436583e-05       3.580088000486e+02 
       7.346522736421e-05       4.443653945410e+02 
       9.248724161204e-05       5.515350273755e+02 
       1.164345387321e-04       6.845172890890e+02 
       1.465823996204e-04       8.494970024399e+02 
       1.845363078039e-04       1.054110623604e+03 
       2.323174472930e-04       1.307759604581e+03 
       2.924703380003e-04       1.621968346667e+03 
       3.681983407047e-04       2.010775703213e+03 
       4.635342476935e-04       2.491137153701e+03 
       5.835550436583e-04       3.083301373705e+03 
       7.346522736421e-04       3.811103336586e+03 
       9.248724161204e-04       4.702047382029e+03 
       1.164345387321e-03       5.786897837725e+03 
       1.465823996204e-03       7.098365485789e+03 
       1.845363078039e-03       8.668609315110e+03 
       2.323174472930e-03       1.052477013136e+04 
       2.924703380003e-03       1.268211204278e+04 
       3.681983407047e-03       1.513436866062e+04 
       4.635342476935e-03       1.779284538851e+04 
       5.835550436583e-03       2.063369503794e+04 
       7.346522736421e-03       2.345152251920e+04 
       9.248724161204e-03       2.597124127560e+04 
       1.164345387321e-02       2.779801279259e+04 
       1.465823996195e-02       2.843141642766e+04 
       1.845363035819e-02       2.737198747042e+04 
       2.323149963871e-02       2.440204101905e+04 
       2.921982877803e-02       2.003334731762e+04 
       3.608059490324e-02       1.593183547977e+04 
       4.155725255429e-02       1.377045958212e+04 
       4.559562762772e-02       1.271939235224e+04 
       4.897568326831e-02       1.208581477527e+04 
       5.201746506253e-02       1.163158190510e+04 
       5.486754283415e-02       1.125171847427e+04 
       5.760510831425e-02       1.089021354271e+04 
       6.027835171637e-02       1.051472080106e+04 
       6.291928228254e-02       1.010735231632e+04 
       6.555065986030e-02       9.660755159628e+03 
       6.818959001011e-02       9.176011237057e+03 
       7.084954213506e-02       8.661034620494e+03 
       7.354155499585e-02       8.128925310347e+03 
       7.627499366680e-02       7.596107051634e+03 
       7.905804460386e-02       7.080293149442e+03 
       8.189805049547e-02       6.598444698043e+03 
       8.480174312555e-02       6.164934025105e+03 
       8.777540904834e-02       5.790091946349e+03 
       9.082500964948e-02       5.479229203937e+03 
       9.395626940781e-02       5.232120121268e+03 
       9.717474146512e-02       5.042883022785e+03 
       1.004858566759e-01       4.900228952192e+03 
       1.038949604343e-01       4.788179034810e+03 
       1.074073403580e-01       4.687487088484e+03 
       1.110282471032e-01       4.578015488847e+03 
       1.147629100545e-01       4.442066762749e+03 
       1.186165492733e-01       4.268164499058e+03 
       1.225943848573e-01       4.054208165327e+03 
       1.267016447040e-01       3.808674154322e+03 
       1.309435715741e-01       3.548955934159e+03 
       1.353254302849e-01       3.297006556858e+03 
       1.398525158246e-01       3.073623052130e+03 
       1.445301631545e-01       2.893222238079e+03 
       1.493637594481e-01       2.760480578529e+03 
       1.543587595075e-01       2.669279322178e+03 
       1.595207050889e-01       2.603939013447e+03 
       1.648552488679e-01       2.542978218488e+03 
       1.703681837763e-01       2.465585973994e+03 
       1.760654784586e-01       2.359479381649e+03 
       1.819533196237e-01       2.226484030363e+03 
       1.880381621242e-01       2.081836060214e+03 
       1.943267876831e-01       1.946669967250e+03 
       2.008263733213e-01       1.837858484182e+03 
       2.075445707359e-01       1.760664262631e+03 
       2.144895981535e-01       1.707043134856e+03 
       2.216703465539e-01       1.659838381680e+03 
       2.290965026688e-01       1.601907304676e+03 
       2.367786918264e-01       1.526405309058e+03 
       2.447286446027e-01       1.440919928323e+03 
       2.529593924143e-01       1.361048329225e+03 
       2.614854987434e-01       1.298397318075e+03 
       2.703233347583e-01       1.252627063586e+03 
       2.794914108845e-01       1.212790103560e+03 
       2.890107796677e-01       1.166883068919e+03 
       2.989055304763e-01       1.112488697088e+03 
       3.092034038498e-01       1.057995599156e+03 
       3.199365635552e-01       1.012542531232e+03 
       3.311425791551e-01       9.761521005618e+02 
       3.428656934311e-01       9.408672153255e+02 
       3.551584810958e-01       9.012639350523e+02 
       3.680840539991e-01       8.609827585157e+02 
       3.817190438612e-01       8.258526028157e+02 
       3.961577144109e-01       7.945464269267e+02 
       4.115177527572e-01       7.619272877726e+02 
       4.279486242079e-01       7.285724552648e+02 
       4.456439594267e-01       6.979700763845e+02 
       4.648605057297e-01       6.682385354604e+02 
       4.859481939008e-01       6.375288435300e+02 
       5.093999067768e-01       6.077485479920e+02 
       5.359380701446e-01       5.774615008146e+02 
       5.666744318905e-01       5.463539217314e+02 
       6.034259099909e-01       5.137673355580e+02 
       6.493894660070e-01       4.786099213757e+02 
       7.106973836218e-01       4.389914563335e+02 
       8.000686059090e-01       3.920277442245e+02 
       9.428588398942e-01       3.344538164474e+02 
       1.166743431302e+00       2.697958311701e+02 
       1.467379533242e+00       2.102358003960e+02 
       1.847299134115e+00       1.594655071019e+02 
       2.325611759304e+00       1.172661815449e+02 
       2.927771741731e+00       8.343051624068e+01 
       3.685846245598e+00       5.749362158524e+01 
       4.640205502550e+00       3.850062728344e+01 
       5.841672623107e+00       2.515478501449e+01 
       7.354230112611e+00       1.610179840831e+01 
       9.258427172948e+00       1.013720795935e+01 
       1.165566924127e+01       6.298634977326e+00 
