# Matter power spectrum P(k) at redshift z=0
# for k=2.18739e-07 to 10.9743 h/Mpc,
# number of wavenumbers equal to 139
#    1:k (h/Mpc)              2:P (Mpc/h)^3        
       2.187394691279e-07       6.499633875451e-01 
       2.753766762475e-07       8.135025024162e-01 
       3.466786955433e-07       1.018190153252e+00 
       4.364426195472e-07       1.274379838383e+00 
       5.494487045379e-07       1.595030128413e+00 
       6.917149366202e-07       1.996360135289e+00 
       8.708175114287e-07       2.498669905272e+00 
       1.096294294173e-06       3.127367232283e+00 
       1.380152745739e-06       3.914252828514e+00 
       1.737509363769e-06       4.899128857099e+00 
       2.187394691279e-06       6.131812183383e+00 
       2.753766762475e-06       7.674654171239e+00 
       3.466786955433e-06       9.605694461593e+00 
       4.364426195472e-06       1.202260822133e+01 
       5.494487045379e-06       1.504764644910e+01 
       6.917149366202e-06       1.883381908585e+01 
       8.708175114287e-06       2.357263340077e+01 
       1.096294294173e-05       2.950377850837e+01 
       1.380152745739e-05       3.692724476830e+01 
       1.737509363769e-05       4.621848886447e+01 
       2.187394691279e-05       5.784740726594e+01 
       2.753766762475e-05       7.240206906049e+01 
       3.466786955433e-05       9.061839138520e+01 
       4.364426195472e-05       1.134172243333e+02 
       5.494487045379e-05       1.419506536704e+02 
       6.917149366202e-05       1.776597301319e+02 
       8.708175114287e-05       2.223462831759e+02 
       1.096294294173e-04       2.782619378342e+02 
       1.380152745739e-04       3.482178383795e+02 
       1.737509363769e-04       4.357187086446e+02 
       2.187394691279e-04       5.451244067917e+02 
       2.753766762475e-04       6.818405049545e+02 
       3.466786955433e-04       8.525359023921e+02 
       4.364426195472e-04       1.065379483522e+03 
       5.494487045379e-04       1.330279724336e+03 
       6.917149366202e-04       1.659102149744e+03 
       8.708175114287e-04       2.065824841502e+03 
       1.096294294173e-03       2.566543931108e+03 
       1.380152745739e-03       3.179135104685e+03 
       1.737509363769e-03       3.922332345016e+03 
       2.187394691279e-03       4.814027874928e+03 
       2.753766762475e-03       5.868409089320e+03 
       3.466786955433e-03       7.091712977353e+03 
       4.364426195472e-03       8.476541527975e+03 
       5.494487045379e-03       9.994471143465e+03 
       6.917149366202e-03       1.154226211434e+04 
       8.708175114287e-03       1.309490515201e+04 
       1.096294294173e-02       1.447837893834e+04 
       1.380152745739e-02       1.550188455411e+04 
       1.737509363766e-02       1.593904264903e+04 
       2.187394675207e-02       1.557460937538e+04 
       2.753754271665e-02       1.431280531244e+04 
       3.465028600217e-02       1.234374465698e+04 
       4.305014633583e-02       1.031359073749e+04 
       5.016863753347e-02       9.081791652757e+03 
       5.532476408689e-02       8.430085134014e+03 
       5.957083225558e-02       7.992786359837e+03 
       6.335918237481e-02       7.644407710655e+03 
       6.689095106365e-02       7.333508737366e+03 
       7.027238443399e-02       7.035193986463e+03 
       7.356709722135e-02       6.736984786025e+03 
       7.681683062185e-02       6.433531540965e+03 
       8.005097722970e-02       6.124166938855e+03 
       8.329145063115e-02       5.811473130821e+03 
       8.655538868758e-02       5.500213729379e+03 
       8.985675410244e-02       5.196392727961e+03 
       9.320733226186e-02       4.906372720999e+03 
       9.661738002132e-02       4.636061144014e+03 
       1.000960624002e-01       4.390204087680e+03 
       1.036517550528e-01       4.171828917689e+03 
       1.072922587635e-01       3.981866299419e+03 
       1.110249544817e-01       3.818969001135e+03 
       1.148569170667e-01       3.679542535772e+03 
       1.187949996720e-01       3.558011440682e+03 
       1.228458968134e-01       3.447357239319e+03 
       1.270161917042e-01       3.339954770583e+03 
       1.313123918344e-01       3.228680230496e+03 
       1.357409557215e-01       3.108158360206e+03 
       1.403083130583e-01       2.975885772376e+03 
       1.450208800200e-01       2.832883966743e+03 
       1.498850711802e-01       2.683577191039e+03 
       1.549073092846e-01       2.534794301161e+03 
       1.600940339980e-01       2.394093161173e+03 
       1.654517106533e-01       2.267857626413e+03 
       1.709868399842e-01       2.159689930858e+03 
       1.767059697838e-01       2.069505769900e+03 
       1.826157094160e-01       1.993551701659e+03 
       1.887227480888e-01       1.925408213523e+03 
       1.950338777913e-01       1.857877791540e+03 
       2.015560217916e-01       1.785351495299e+03 
       2.082962695943e-01       1.705829303594e+03 
       2.152619192728e-01       1.621594831189e+03 
       2.224605281220e-01       1.538018144300e+03 
       2.298999726420e-01       1.460963569468e+03 
       2.375885189613e-01       1.394089155714e+03 
       2.455349049660e-01       1.337334543260e+03 
       2.537484356265e-01       1.287243357274e+03 
       2.622390933326e-01       1.238952193322e+03 
       2.710176654900e-01       1.188895036018e+03 
       2.800958922178e-01       1.136683596986e+03 
       2.894866377797e-01       1.084881779819e+03 
       2.992040904234e-01       1.036822713600e+03 
       3.092639966848e-01       9.941358814782e+02 
       3.196839380412e-01       9.558011718831e+02 
       3.304836602344e-01       9.192915978995e+02 
       3.416854688540e-01       8.827662944372e+02 
       3.533147092048e-01       8.464051622854e+02 
       3.654003545636e-01       8.117252428173e+02 
       3.779757353897e-01       7.797372375694e+02 
       3.910794539803e-01       7.499532231604e+02 
       4.047565461542e-01       7.211741104877e+02 
       4.190599764648e-01       6.929182502159e+02 
       4.340525904353e-01       6.656809336239e+02 
       4.498097033568e-01       6.398830476474e+02 
       4.664225920111e-01       6.151881238384e+02 
       4.840032934706e-01       5.911039612990e+02 
       5.026913398387e-01       5.676462457526e+02 
       5.226634354552e-01       5.449378201605e+02 
       5.441477396925e-01       5.227401356097e+02 
       5.674456044849e-01       5.008278045008e+02 
       5.929658527899e-01       4.791394253801e+02 
       6.212811165610e-01       4.574471956341e+02 
       6.532250399630e-01       4.354775454930e+02 
       6.900698782100e-01       4.128976688313e+02 
       7.338735634378e-01       3.891840949389e+02 
       7.882120177634e-01       3.635457424283e+02 
       8.598491584745e-01       3.346724349077e+02 
       9.626841225573e-01       3.003905267486e+02 
       1.125133304094e+00       2.578646505412e+02 
       1.384014954898e+00       2.081003591730e+02 
       1.739350131472e+00       1.604421843127e+02 
       2.189653606157e+00       1.195145562669e+02 
       2.756610345396e+00       8.580216377022e+01 
       3.470366814114e+00       5.938927909133e+01 
       4.368932970535e+00       3.978393400150e+01 
       5.500160739032e+00       2.592557624754e+01 
       6.924292123320e+00       1.652044408134e+01 
       8.717167312734e+00       1.034266081427e+01 
       1.097426344886e+01       6.387055609574e+00 
