# Matter power spectrum P(k) at redshift z=2.5
# for k=2.15735e-07 to 10.8253 h/Mpc,
# number of wavenumbers equal to 139
#    1:k (h/Mpc)              2:P (Mpc/h)^3        
       2.157347507085e-07       1.997346378667e-01 
       2.715939598740e-07       2.480980702282e-01 
       3.419165377751e-07       3.081721482462e-01 
       4.304474181178e-07       3.827924693329e-01 
       5.419011931097e-07       4.754812377897e-01 
       6.822131826874e-07       5.906135188021e-01 
       8.588555119461e-07       7.336237486407e-01 
       1.081235029048e-06       9.112622488047e-01 
       1.361194254191e-06       1.131913851134e+00 
       1.713642036989e-06       1.405993676350e+00 
       2.157347507085e-06       1.746438739460e+00 
       2.715939598740e-06       2.169318593868e+00 
       3.419165377751e-06       2.694593829695e+00 
       4.304474181178e-06       3.347058222170e+00 
       5.419011931097e-06       4.157508992561e+00 
       6.822131826874e-06       5.164200397188e+00 
       8.588555119461e-06       6.414649211706e+00 
       1.081235029048e-05       7.967877236833e+00 
       1.361194254191e-05       9.897196535264e+00 
       1.713642036989e-05       1.229366847835e+01 
       2.157347507085e-05       1.527039927795e+01 
       2.715939598740e-05       1.896787339420e+01 
       3.419165377751e-05       2.356057405548e+01 
       4.304474181178e-05       2.926519831024e+01 
       5.419011931097e-05       3.635084450082e+01 
       6.822131826874e-05       4.515163350792e+01 
       8.588555119461e-05       5.608232134292e+01 
       1.081235029048e-04       6.965756520865e+01 
       1.361194254191e-04       8.651560626114e+01 
       1.713642036989e-04       1.074472030882e+02 
       2.157347507085e-04       1.334306341015e+02 
       2.715939598740e-04       1.656733780052e+02 
       3.419165377751e-04       2.056604913006e+02 
       4.304474181178e-04       2.552084379874e+02 
       5.419011931097e-04       3.165208385254e+02 
       6.822131826874e-04       3.922391376978e+02 
       8.588555119461e-04       4.854772154848e+02 
       1.081235029048e-03       5.998263992237e+02 
       1.361194254191e-03       7.393159833681e+02 
       1.713642036989e-03       9.082992140300e+02 
       2.157347507085e-03       1.111178445545e+03 
       2.715939598740e-03       1.351850033334e+03 
       3.419165377751e-03       1.632867117245e+03 
       4.304474181178e-03       1.954274956546e+03 
       5.419011931097e-03       2.309693380511e+03 
       6.822131826874e-03       2.692145621648e+03 
       8.588555119461e-03       3.080833960703e+03 
       1.081235029048e-02       3.445121825220e+03 
       1.361194254191e-02       3.741301240347e+03 
       1.713642036948e-02       3.914213991809e+03 
       2.157347375362e-02       3.907570114531e+03 
       2.715880362122e-02       3.690211806118e+03 
       3.413826548787e-02       3.299169106012e+03 
       4.185632022518e-02       2.895733403131e+03 
       4.774569639938e-02       2.655082223853e+03 
       5.217278661221e-02       2.509325838490e+03 
       5.592796577252e-02       2.401743182916e+03 
       5.933157708830e-02       2.311274930321e+03 
       6.253424016775e-02       2.228343088192e+03 
       6.561893145368e-02       2.147961051236e+03 
       6.863685677572e-02       2.067474087579e+03 
       7.162239310307e-02       1.985654138548e+03 
       7.460019338392e-02       1.902262387716e+03 
       7.758891794037e-02       1.817783756197e+03 
       8.060334958824e-02       1.733222169734e+03 
       8.365566692109e-02       1.649912760003e+03 
       8.675624886617e-02       1.569335153433e+03 
       8.991420361356e-02       1.492930045021e+03 
       9.313772790350e-02       1.421927296885e+03 
       9.643435776637e-02       1.357195928342e+03 
       9.981114742977e-02       1.299128347423e+03 
       1.032747992646e-01       1.247568648835e+03 
       1.068317594779e-01       1.201795574155e+03 
       1.104882892889e-01       1.160569928669e+03 
       1.142505182091e-01       1.122256406217e+03 
       1.181244840586e-01       1.085024819636e+03 
       1.221161630477e-01       1.047120298840e+03 
       1.262314923983e-01       1.007170284567e+03 
       1.304763874081e-01       9.644678062611e+02 
       1.348567544810e-01       9.191525828171e+02 
       1.393785013958e-01       8.722181615204e+02 
       1.440475459195e-01       8.253101972266e+02 
       1.488698237646e-01       7.803447952080e+02 
       1.538512968239e-01       7.390349928973e+02 
       1.589979625714e-01       7.024494050060e+02 
       1.643158654949e-01       6.707215799434e+02 
       1.698111114060e-01       6.429972111705e+02 
       1.754898854631e-01       6.176596001115e+02 
       1.813584747364e-01       5.928131923502e+02 
       1.874232961393e-01       5.669133216467e+02 
       1.936909305584e-01       5.393255332228e+02 
       2.001681640294e-01       5.105568782350e+02 
       2.068620368460e-01       4.820043709565e+02 
       2.137799015533e-01       4.553001051727e+02 
       2.209294908857e-01       4.315555155085e+02 
       2.283189968676e-01       4.108684830505e+02 
       2.359571625306e-01       3.923322532900e+02 
       2.438533880214e-01       3.745557877007e+02 
       2.520178533221e-01       3.564453936399e+02 
       2.604616603925e-01       3.378019754863e+02 
       2.691969983413e-01       3.193337623495e+02 
       2.782373362719e-01       3.020618104339e+02 
       2.875976498353e-01       2.865534792026e+02 
       2.972946893540e-01       2.725530894436e+02 
       3.073472998284e-01       2.592701836838e+02 
       3.177768064296e-01       2.460710347793e+02 
       3.286074835664e-01       2.329679491233e+02 
       3.398671317843e-01       2.204625102612e+02 
       3.515877953710e-01       2.089356964658e+02 
       3.638066657536e-01       1.982502853487e+02 
       3.765672333573e-01       1.879752867000e+02 
       3.899207763602e-01       1.779127493096e+02 
       4.039283132671e-01       1.682467960413e+02 
       4.186632049047e-01       1.591623591941e+02 
       4.342146829784e-01       1.505417044406e+02 
       4.506927287563e-01       1.421828650750e+02 
       4.682349663020e-01       1.341001578806e+02 
       4.870166434381e-01       1.263689235765e+02 
       5.072654921048e-01       1.188991911358e+02 
       5.292845737202e-01       1.116081157997e+02 
       5.534887286021e-01       1.045041396562e+02 
       5.804653087688e-01       9.751617403671e+01 
       6.110806699131e-01       9.057232158068e+01 
       6.466784804398e-01       8.359518334636e+01 
       6.894759120598e-01       7.645735952788e+01 
       7.434198829239e-01       6.898161136714e+01 
       8.161773158851e-01       6.090092913121e+01 
       9.237528464761e-01       5.187067048094e+01 
       1.097009219959e+00       4.182461915543e+01 
       1.363625998029e+00       3.212120071629e+01 
       1.715701103124e+00       2.438313724887e+01 
       2.159927503038e+00       1.839703550020e+01 
       2.719187594277e+00       1.369568497447e+01 
       3.423254361863e+00       9.993455789868e+00 
       4.309621907185e+00       7.111435235724e+00 
       5.425492534180e+00       4.918117975899e+00 
       6.830290422779e+00       3.299527312442e+00 
       8.598826183171e+00       2.148211781846e+00 
       1.082528079359e+01       1.361004024712e+00 
