# Matter power spectrum P(k) at redshift z=1
# for k=2.15635e-07 to 10.8224 h/Mpc,
# number of wavenumbers equal to 139
#    1:k (h/Mpc)              2:P (Mpc/h)^3        
       2.156353174307e-07       4.952507247171e-01 
       2.714687807939e-07       6.142357917499e-01 
       3.417589466502e-07       7.618072803039e-01 
       4.302490226459e-07       9.448331401863e-01 
       5.416514280085e-07       1.171831360578e+00 
       6.818987470545e-07       1.453366395151e+00 
       8.584596609376e-07       1.802540829082e+00 
       1.080736682155e-06       2.235605168673e+00 
       1.360566872622e-06       2.772714132912e+00 
       1.712852210390e-06       3.438864643445e+00 
       2.156353174307e-06       4.265059160245e+00 
       2.714687807939e-06       5.289748501025e+00 
       3.417589466502e-06       6.560621275306e+00 
       4.302490226459e-06       8.136823188776e+00 
       5.416514280085e-06       1.009170944176e+01 
       6.818987470545e-06       1.251625821816e+01 
       8.584596609376e-06       1.552330390785e+01 
       1.080736682155e-05       1.925278665863e+01 
       1.360566872622e-05       2.387826174051e+01 
       1.712852210390e-05       2.961497005480e+01 
       2.156353174307e-05       3.672984218936e+01 
       2.714687807939e-05       4.555389534789e+01 
       3.417589466502e-05       5.649758780498e+01 
       4.302490226459e-05       7.006982132915e+01 
       5.416514280085e-05       8.690142861835e+01 
       6.818987470545e-05       1.077741460401e+02 
       8.584596609376e-05       1.336562389167e+02 
       1.080736682155e-04       1.657460841621e+02 
       1.360566872622e-04       2.055250546174e+02 
       1.712852210390e-04       2.548208520523e+02 
       2.156353174307e-04       3.158817456487e+02 
       2.714687807939e-04       3.914605519889e+02 
       3.417589466502e-04       4.849039934581e+02 
       4.302490226459e-04       6.002376025823e+02 
       5.416514280085e-04       7.422285768329e+02 
       6.818987470545e-04       9.164011196742e+02 
       8.584596609376e-04       1.128975715597e+03 
       1.080736682155e-03       1.386703317139e+03 
       1.360566872622e-03       1.696529699837e+03 
       1.712852210390e-03       2.064909123845e+03 
       2.156353174307e-03       2.496578818894e+03 
       2.714687807939e-03       2.992872972515e+03 
       3.417589466502e-03       3.549551527742e+03 
       4.302490226459e-03       4.154322785184e+03 
       5.416514280085e-03       4.784178095866e+03 
       6.818987470545e-03       5.398913133669e+03 
       8.584596609376e-03       5.955357357725e+03 
       1.080736682155e-02       6.386577199360e+03 
       1.360566872622e-02       6.617833514140e+03 
       1.712852210390e-02       6.571627844095e+03 
       2.156353173248e-02       6.186758121728e+03 
       2.714686182206e-02       5.456446726325e+03 
       3.417190776128e-02       4.482141270487e+03 
       4.280717029926e-02       3.510861566283e+03 
       5.126260459677e-02       2.885517249500e+03 
       5.733267505834e-02       2.592517546143e+03 
       6.212647196249e-02       2.417732617850e+03 
       6.630963810728e-02       2.286881624122e+03 
       7.016055992778e-02       2.173516225457e+03 
       7.381850314406e-02       2.066105036532e+03 
       7.736368281513e-02       1.959370451647e+03 
       8.084723622525e-02       1.851317891547e+03 
       8.430436592571e-02       1.741936063351e+03 
       8.776083412504e-02       1.632469018654e+03 
       9.123647478584e-02       1.524903430447e+03 
       9.474723054938e-02       1.421549720186e+03 
       9.830640163640e-02       1.324683769018e+03 
       1.019254468735e-01       1.236249347633e+03 
       1.056145168231e-01       1.157630929709e+03 
       1.093828196290e-01       1.089503083509e+03 
       1.132388784814e-01       1.031755549240e+03 
       1.171907165735e-01       9.834887328564e+02 
       1.212459921592e-01       9.430766897495e+02 
       1.254120984057e-01       9.083028522456e+02 
       1.296962378600e-01       8.765814600511e+02 
       1.341054782774e-01       8.452730134404e+02 
       1.386467945731e-01       8.120772394162e+02 
       1.433271003607e-01       7.754439158237e+02 
       1.481532716819e-01       7.348982011418e+02 
       1.531321649581e-01       6.911628831974e+02 
       1.582706308124e-01       6.459979378576e+02 
       1.635755251616e-01       6.017667093967e+02 
       1.690537188097e-01       5.608387578230e+02 
       1.747121066717e-01       5.249993893065e+02 
       1.805576176887e-01       4.950238709339e+02 
       1.865972264548e-01       4.705113670914e+02 
       1.928379675499e-01       4.500091785688e+02 
       1.992869535550e-01       4.314178879886e+02 
       2.059513977163e-01       4.126197562921e+02 
       2.128386422165e-01       3.921741510991e+02 
       2.199561930122e-01       3.698124264343e+02 
       2.273117622060e-01       3.464682273315e+02 
       2.349133189502e-01       3.237807063654e+02 
       2.427691499337e-01       3.033030507955e+02 
       2.508879305916e-01       2.858112911355e+02 
       2.592788083277e-01       2.710290712271e+02 
       2.679514992468e-01       2.578652975486e+02 
       2.769164002010e-01       2.450388097292e+02 
       2.861847183774e-01       2.317735246724e+02 
       2.957686212191e-01       2.181571431855e+02 
       3.056814102418e-01       2.049268831872e+02 
       3.159377233150e-01       1.928523631112e+02 
       3.265537713190e-01       1.821854913263e+02 
       3.375476168592e-01       1.725619410484e+02 
       3.489395050709e-01       1.633735786945e+02 
       3.607522597026e-01       1.542742794415e+02 
       3.730117619159e-01       1.453829081146e+02 
       3.857475350600e-01       1.370353662143e+02 
       3.989934667180e-01       1.293845440590e+02 
       4.127887106170e-01       1.222705911408e+02 
       4.271788270770e-01       1.154486644183e+02 
       4.422172439827e-01       1.088570219072e+02 
       4.579671546393e-01       1.026013679117e+02 
       4.745040205882e-01       9.673418666829e+01 
       4.919189269281e-01       9.117066663567e+01 
       5.103231627258e-01       8.582711901634e+01 
       5.298546010380e-01       8.071289449180e+01 
       5.506867887922e-01       7.583892507588e+01 
       5.730422333985e-01       7.115747900518e+01 
       5.972124002646e-01       6.663380916576e+01 
       6.235888430322e-01       6.225676687562e+01 
       6.527136014531e-01       5.799019514420e+01 
       6.853646264573e-01       5.379663864853e+01 
       7.227086262398e-01       4.963423638821e+01 
       7.665925372985e-01       4.544339899811e+01 
       8.201418948891e-01       4.114355785003e+01 
       8.890907779177e-01       3.661630319502e+01 
       9.849212595857e-01       3.168974776256e+01 
       1.131689238945e+00       2.618519940310e+01 
       1.369663002786e+00       2.030858272484e+01 
       1.715459923693e+00       1.515627104513e+01 
       2.159344832688e+00       1.125095406788e+01 
       2.718452076659e+00       8.298754702011e+00 
       3.422328397829e+00       6.041640768635e+00 
       4.308456187532e+00       4.316288380585e+00 
       5.424024980086e+00       3.013040074519e+00 
       6.828442881637e+00       2.049474120152e+00 
       8.596500266677e+00       1.356618558474e+00 
       1.082235263822e+01       8.739914231722e-01 
