# Matter power spectrum P(k) at redshift z=1.5
# for k=2.27288e-07 to 11.4068 h/Mpc,
# number of wavenumbers equal to 139
#    1:k (h/Mpc)              2:P (Mpc/h)^3        
       2.272880490157e-07       1.900732485261e-01 
       2.861387007029e-07       2.359994534201e-01 
       3.602272816127e-07       2.930225185875e-01 
       4.534992788437e-07       3.638237086857e-01 
       5.709217663667e-07       4.517321451558e-01 
       7.187479198255e-07       5.608813445018e-01 
       9.048500209425e-07       6.964035783046e-01 
       1.139138685227e-06       8.646711961454e-01 
       1.434090638390e-06       1.073596257607e+00 
       1.805413147485e-06       1.333002561944e+00 
       2.272880490157e-06       1.655087567927e+00 
       2.861387007029e-06       2.054995922260e+00 
       3.602272816127e-06       2.551531564484e+00 
       4.534992788437e-06       3.168041886228e+00 
       5.709217663667e-06       3.933515509868e+00 
       7.187479198255e-06       4.883945295035e+00 
       9.048500209425e-06       6.064020630047e+00 
       1.139138685227e-05       7.529228524951e+00 
       1.434090638390e-05       9.348462190043e+00 
       1.805413147485e-05       1.160725954332e+01 
       2.272880490157e-05       1.441182348833e+01 
       2.861387007029e-05       1.789401215633e+01 
       3.602272816127e-05       2.221753210160e+01 
       4.534992788437e-05       2.758562238438e+01 
       5.709217663667e-05       3.425058445789e+01 
       7.187479198255e-05       4.252559333602e+01 
       9.048500209425e-05       5.279932079035e+01 
       1.139138685227e-04       6.555400982607e+01 
       1.434090638390e-04       8.138775629979e+01 
       1.805413147485e-04       1.010418630331e+02 
       2.272880490157e-04       1.254342024733e+02 
       2.861387007029e-04       1.556994936234e+02 
       3.602272816127e-04       1.932371594262e+02 
       4.534992788437e-04       2.397668213738e+02 
       5.709217663667e-04       2.973903328435e+02 
       7.187479198255e-04       3.686575071738e+02 
       9.048500209425e-04       4.566306445919e+02 
       1.139138685227e-03       5.649406897808e+02 
       1.434090638390e-03       6.978218902433e+02 
       1.805413147485e-03       8.600914209935e+02 
       2.272880490157e-03       1.057009008740e+03 
       2.861387007029e-03       1.293957507790e+03 
       3.602272816127e-03       1.575880262356e+03 
       4.534992788437e-03       1.906356462013e+03 
       5.709217663667e-03       2.286145811250e+03 
       7.187479198255e-03       2.711107406185e+03 
       9.048500209425e-03       3.169413061556e+03 
       1.139138685227e-02       3.638142006085e+03 
       1.434090638390e-02       4.080015226198e+03 
       1.805413146196e-02       4.442512540764e+03 
       2.272878687079e-02       4.664403651374e+03 
       2.860977188377e-02       4.696826143503e+03 
       3.581280082786e-02       4.543907980138e+03 
       4.273533535531e-02       4.331645977525e+03 
       4.769376666220e-02       4.176463833327e+03 
       5.163333268457e-02       4.055572076706e+03 
       5.508220706477e-02       3.950288094602e+03 
       5.826290993639e-02       3.852035412574e+03 
       6.128760788212e-02       3.756339881574e+03 
       6.422125743324e-02       3.660708644739e+03 
       6.710543405789e-02       3.563810550191e+03 
       6.996884716405e-02       3.465106086191e+03 
       7.283256045236e-02       3.364647597725e+03 
       7.571282524057e-02       3.262941570975e+03 
       7.862272839099e-02       3.160829967958e+03 
       8.157320501474e-02       3.059369496438e+03 
       8.457368921788e-02       2.959703646670e+03 
       8.763254787822e-02       2.862929426982e+03 
       9.075737869161e-02       2.769964854345e+03 
       9.395522014228e-02       2.681428656609e+03 
       9.723270246771e-02       2.597545651109e+03 
       1.005961579675e-01       2.518091257994e+03 
       1.040517025970e-01       2.442390217140e+03 
       1.076052968369e-01       2.369380116460e+03 
       1.112627913350e-01       2.297745560902e+03 
       1.150299612047e-01       2.226115983656e+03 
       1.189125318104e-01       2.153305722645e+03 
       1.229161981710e-01       2.078556613827e+03 
       1.270466396446e-01       2.001727705435e+03 
       1.313095312510e-01       1.923375428655e+03 
       1.357105527807e-01       1.844680870229e+03 
       1.402553967087e-01       1.767216106523e+03 
       1.449497758420e-01       1.692586150705e+03 
       1.497994315809e-01       1.622028085809e+03 
       1.548101436356e-01       1.556075547369e+03 
       1.599877420220e-01       1.494395414498e+03 
       1.653381221454e-01       1.435872587762e+03 
       1.708672637721e-01       1.378953961238e+03 
       1.765812546815e-01       1.322173869654e+03 
       1.824863197952e-01       1.264690261250e+03 
       1.885888565848e-01       1.206613036778e+03 
       1.948954775863e-01       1.148952980910e+03 
       2.014130608940e-01       1.093173540316e+03 
       2.081488095844e-01       1.040524918658e+03 
       2.151103211432e-01       9.914720440211e+02 
       2.223056681466e-01       9.455090286938e+02 
       2.297434917055e-01       9.014767910977e+02 
       2.374331095355e-01       8.582338696178e+02 
       2.453846409916e-01       8.153017956887e+02 
       2.536091520516e-01       7.730774961359e+02 
       2.621188240789e-01       7.324612690670e+02 
       2.709271513189e-01       6.941605758215e+02 
       2.800491735711e-01       6.581835532591e+02 
       2.895017524528e-01       6.239029584039e+02 
       2.993039023177e-01       5.906192405432e+02 
       3.094771904676e-01       5.581244423741e+02 
       3.200462261813e-01       5.267584064546e+02 
       3.310392648546e-01       4.969362726289e+02 
       3.424889630462e-01       4.686668053432e+02 
       3.544333337744e-01       4.415759946478e+02 
       3.669169710601e-01       4.153570348531e+02 
       3.799926417142e-01       3.900571461240e+02 
       3.937233860451e-01       3.658541654724e+02 
       4.081853363453e-01       3.427002956404e+02 
       4.234715678461e-01       3.203730827807e+02 
       4.396974679620e-01       2.987818051058e+02 
       4.570083945607e-01       2.779661317308e+02 
       4.755908841310e-01       2.578551855302e+02 
       4.956895454968e-01       2.383072402954e+02 
       5.176334024667e-01       2.192631601327e+02 
       5.418786244305e-01       2.006317869561e+02 
       5.690811220583e-01       1.822656157920e+02 
       6.002267914600e-01       1.640192053835e+02 
       6.368806758064e-01       1.456711981861e+02 
       6.817003246040e-01       1.269289927292e+02 
       7.395808492209e-01       1.073797871105e+02 
       8.203610215398e-01       8.651481326812e+01 
       9.446270573651e-01       6.411480458319e+01 
       1.145949344205e+00       4.211475697450e+01 
       1.436184870607e+00       2.543568796239e+01 
       1.807850865748e+00       1.501409767251e+01 
       2.275948127671e+00       8.755943631329e+00 
       2.865248932571e+00       5.052391914842e+00 
       3.607134692330e+00       2.887698272792e+00 
       4.541113527938e+00       1.636359215533e+00 
       5.716923218164e+00       9.201065081545e-01 
       7.197179916623e+00       5.137437795392e-01 
       9.060712690291e+00       2.850244626451e-01 
       1.140676145477e+01       1.572133297313e-01 
