# Matter power spectrum P(k) at redshift z=2
# for k=1.94307e-07 to 12.2765 h/Mpc,
# number of wavenumbers equal to 140
#    1:k (h/Mpc)              2:P (Mpc/h)^3        
       1.943071938146e-07       2.784103084958e-01 
       2.446182639876e-07       3.471645016420e-01 
       3.079561487230e-07       4.328977321114e-01 
       3.876938213457e-07       5.398030197578e-01 
       4.880776036877e-07       6.731088620453e-01 
       6.144532982100e-07       8.393349477425e-01 
       7.735508714773e-07       1.046611019778e+00 
       9.738428494183e-07       1.305074481696e+00 
       1.225995510227e-06       1.627366192952e+00 
       1.543436902570e-06       2.029248701029e+00 
       1.943071938146e-06       2.530377143783e+00 
       2.446182639877e-06       3.155260519759e+00 
       3.079561487230e-06       3.934460336545e+00 
       3.876938213457e-06       4.906085239602e+00 
       4.880776036877e-06       6.117654686315e+00 
       6.144532982100e-06       7.628422761338e+00 
       7.735508714773e-06       9.512275644462e+00 
       9.738428494183e-06       1.186134420501e+01 
       1.225995510227e-05       1.479050791990e+01 
       1.543436902570e-05       1.844300941516e+01 
       1.943071938146e-05       2.299745231502e+01 
       2.446182639877e-05       2.867652091895e+01 
       3.079561487230e-05       3.575784067076e+01 
       3.876938213457e-05       4.458749595043e+01 
       4.880776036877e-05       5.559683728393e+01 
       6.144532982100e-05       6.932334296002e+01 
       7.735508714773e-05       8.643644286024e+01 
       9.738428494183e-05       1.077693470506e+02 
       1.225995510227e-04       1.343580044929e+02 
       1.543436902570e-04       1.674882596730e+02 
       1.943071938146e-04       2.087519026395e+02 
       2.446182639877e-04       2.601113060297e+02 
       3.079561487230e-04       3.239701939465e+02 
       3.876938213457e-04       4.032440846981e+02 
       4.880776036877e-04       5.014175321369e+02 
       6.144532982100e-04       6.225671514069e+02 
       7.735508714773e-04       7.713234753516e+02 
       9.738428494183e-04       9.527471458741e+02 
       1.225995510227e-03       1.172096873769e+03 
       1.543436902570e-03       1.434409782213e+03 
       1.943071938146e-03       1.743680286064e+03 
       2.446182639877e-03       2.101537455674e+03 
       3.079561487230e-03       2.505657818704e+03 
       3.876938213457e-03       2.947868391496e+03 
       4.880776036877e-03       3.411906901320e+03 
       6.144532982100e-03       3.870483926446e+03 
       7.735508714773e-03       4.286871024493e+03 
       9.738428494183e-03       4.609703371752e+03 
       1.225995510227e-02       4.776794843681e+03 
       1.543436902570e-02       4.720299064529e+03 
       1.943071936728e-02       4.383807970625e+03 
       2.446180667082e-02       3.759969220752e+03 
       3.079115090872e-02       2.945451111365e+03 
       3.854157927516e-02       2.174954567828e+03 
       4.598189451553e-02       1.733878229878e+03 
       5.131069410327e-02       1.557139806701e+03 
       5.554601284659e-02       1.467898229769e+03 
       5.925449861665e-02       1.409218914811e+03 
       6.267498704036e-02       1.360270661617e+03 
       6.592792243566e-02       1.311397210890e+03 
       6.908307710077e-02       1.257776149335e+03 
       7.218511927888e-02       1.197340783350e+03 
       7.526489968248e-02       1.129915950166e+03 
       7.834505642957e-02       1.056723565032e+03 
       8.144305774311e-02       9.799808555801e+02 
       8.457297195085e-02       9.025027814997e+02 
       8.774655535251e-02       8.273005943713e+02 
       9.097395134114e-02       7.572062151037e+02 
       9.426415646788e-02       6.945626068924e+02 
       9.762534069737e-02       6.410095525624e+02 
       1.010650730378e-01       5.973720903969e+02 
       1.045904837732e-01       5.636339107081e+02 
       1.082083830091e-01       5.389636669330e+02 
       1.119253483623e-01       5.217699026712e+02 
       1.157477903788e-01       5.097878520525e+02 
       1.196820015863e-01       5.002374574526e+02 
       1.237341933564e-01       4.901101043962e+02 
       1.279105236174e-01       4.766166768847e+02 
       1.322171177076e-01       4.577499339247e+02 
       1.366600841586e-01       4.328084336712e+02 
       1.412455268648e-01       4.026625091162e+02 
       1.459795548766e-01       3.695886919001e+02 
       1.508682909096e-01       3.366688485504e+02 
       1.559178795708e-01       3.069559284443e+02 
       1.611344962472e-01       2.827068709031e+02 
       1.665243575623e-01       2.649028548595e+02 
       1.720937342859e-01       2.531014379720e+02 
       1.778489675686e-01       2.455614314547e+02 
       1.837964893590e-01       2.396292521528e+02 
       1.899428478582e-01       2.324488810247e+02 
       1.962947388679e-01       2.219409425009e+02 
       2.028590438929e-01       2.076715927359e+02 
       2.096428758908e-01       1.910439022256e+02 
       2.166536336066e-01       1.745660858742e+02 
       2.238990655146e-01       1.606028866225e+02 
       2.313873445234e-01       1.503360791705e+02 
       2.391271547893e-01       1.433790228146e+02 
       2.471277922624e-01       1.380776687561e+02 
       2.553992809686e-01       1.323781524799e+02 
       2.639525075483e-01       1.249726753656e+02 
       2.727993772592e-01       1.160533754482e+02 
       2.819529955689e-01       1.070248955097e+02 
       2.914278806696e-01       9.936672350619e+01 
       3.012402138470e-01       9.358844757701e+01 
       3.114081367645e-01       8.901164298966e+01 
       3.219521075693e-01       8.443410836412e+01 
       3.328953315765e-01       7.916625013337e+01 
       3.442642875495e-01       7.354904322863e+01 
       3.560893778796e-01       6.843420345900e+01 
       3.684057411976e-01       6.422907508765e+01 
       3.812542805387e-01       6.055476385617e+01 
       3.946829813402e-01       5.680866090610e+01 
       4.087486247786e-01       5.290471843660e+01 
       4.235190489840e-01       4.924208417045e+01 
       4.390761830204e-01       4.602444055918e+01 
       4.555201924880e-01       4.300135080426e+01 
       4.729752599214e-01       3.996368903465e+01 
       4.915978300376e-01       3.705509413102e+01 
       5.115886778685e-01       3.437339773425e+01 
       5.332111002329e-01       3.177447016390e+01 
       5.568192848149e-01       2.923627557291e+01 
       5.829043331779e-01       2.681678974090e+01 
       6.121724606561e-01       2.444264712967e+01 
       6.456853175595e-01       2.211206899579e+01 
       6.851284791078e-01       1.979198269958e+01 
       7.333647456130e-01       1.744690815442e+01 
       7.956685440405e-01       1.502299713486e+01 
       8.826433515700e-01       1.245414485277e+01 
       1.016473365117e+00       9.702745670169e+00 
       1.233276663779e+00       6.973002936930e+00 
       1.545684785311e+00       4.824545302408e+00 
       1.945690521890e+00       3.375059243135e+00 
       2.449477899472e+00       2.395182284216e+00 
       3.083709971926e+00       1.714528835769e+00 
       3.882160846261e+00       1.229146954755e+00 
       4.887350942030e+00       8.759260323457e-01 
       6.152810297277e+00       6.161635410310e-01 
       7.745929237191e+00       4.253797798494e-01 
       9.751547154660e+00       2.870709713118e-01 
       1.227647051731e+01       1.890501701109e-01 
