# Matter power spectrum P(k) at redshift z=0.5
# for k=1.45744e-07 to 11.5899 h/Mpc,
# number of wavenumbers equal to 141
#    1:k (h/Mpc)              2:P (Mpc/h)^3        
       1.457437938465e-07       2.448378563853e+00 
       1.834805656846e-07       3.059768490437e+00 
       2.309883467107e-07       3.823829920408e+00 
       2.907970995024e-07       4.778686783189e+00 
       3.660918582397e-07       5.971983013954e+00 
       4.608823433889e-07       7.463259811348e+00 
       5.802164939395e-07       9.326926523240e+00 
       7.304492885625e-07       1.165597339084e+01 
       9.195811713983e-07       1.456661139729e+01 
       1.157684104881e-06       1.820407072227e+01 
       1.457437938465e-06       2.274984708130e+01 
       1.834805656846e-06       2.843075747061e+01 
       2.309883467107e-06       3.553025705305e+01 
       2.907970995024e-06       4.440258159586e+01 
       3.660918582397e-06       5.549042069036e+01 
       4.608823433889e-06       6.934700265826e+01 
       5.802164939395e-06       8.666369127329e+01 
       7.304492885625e-06       1.083044677217e+02 
       9.195811713983e-06       1.353490112115e+02 
       1.157684104881e-05       1.691465137621e+02 
       1.457437938465e-05       2.113828864652e+02 
       1.834805656846e-05       2.641646555848e+02 
       2.309883467107e-05       3.301236256107e+02 
       2.907970995024e-05       4.125473162558e+02 
       3.660918582397e-05       5.155412563361e+02 
       4.608823433889e-05       6.442303946941e+02 
       5.802164939395e-05       8.050080294487e+02 
       7.304492885625e-05       1.005841453211e+03 
       9.195811713983e-05       1.256643300994e+03 
       1.157684104881e-04       1.569715099054e+03 
       1.457437938465e-04       1.960262453412e+03 
       1.834805656846e-04       2.446966013277e+03 
       2.309883467107e-04       3.052564054342e+03 
       2.907970995024e-04       3.804358223798e+03 
       3.660918582397e-04       4.734500177067e+03 
       4.608823433889e-04       5.879878696137e+03 
       5.802164939395e-04       7.281422178767e+03 
       7.304492885625e-04       8.982531547135e+03 
       9.195811713983e-04       1.102582223405e+04 
       1.157684104881e-03       1.344683251700e+04 
       1.457437938465e-03       1.626451980775e+04 
       1.834805656846e-03       1.946872380542e+04 
       2.309883467107e-03       2.300519029452e+04 
       2.907970995024e-03       2.676015838757e+04 
       3.660918582397e-03       3.054518357332e+04 
       4.608823433889e-03       3.405110443574e+04 
       5.802164939395e-03       3.698823565586e+04 
       7.304492885625e-03       3.890659577647e+04 
       9.195811713983e-03       3.934589424725e+04 
       1.157684104880e-02       3.787902806945e+04 
       1.457437933982e-02       3.426715969443e+04 
       1.834801310242e-02       2.873965945476e+04 
       2.309150803073e-02       2.230529968059e+04 
       2.878934649795e-02       1.680303917313e+04 
       3.385504434870e-02       1.391120286977e+04 
       3.749193146489e-02       1.262330668738e+04 
       4.044821186328e-02       1.184620007732e+04 
       4.306776875434e-02       1.124893466997e+04 
       4.550026535107e-02       1.070969969510e+04 
       4.782339449505e-02       1.017563613587e+04 
       5.008310061181e-02       9.624663731138e+03 
       5.230925131117e-02       9.051731696182e+03 
       5.452272429413e-02       8.462340703204e+03 
       5.673899098615e-02       7.868530235264e+03 
       5.897008917608e-02       7.285791787360e+03 
       6.122578318604e-02       6.730450303707e+03 
       6.351428325305e-02       6.217457140306e+03 
       6.584271119454e-02       5.758668897545e+03 
       6.821741269876e-02       5.361677157434e+03 
       7.064417297519e-02       5.029187731755e+03 
       7.312836930289e-02       4.758874548823e+03 
       7.567508107250e-02       4.543607953197e+03 
       7.828917039880e-02       4.372009661141e+03 
       8.097534185885e-02       4.229387064637e+03 
       8.373818711045e-02       4.099183361775e+03 
       8.658221836831e-02       3.965041811739e+03 
       8.951189356482e-02       3.813370875489e+03 
       9.253163526655e-02       3.635949047736e+03 
       9.564584491586e-02       3.431802862143e+03 
       9.885891363309e-02       3.207557633327e+03 
       1.021752305926e-01       2.975847821784e+03 
       1.055991898395e-01       2.752075306733e+03 
       1.091351963191e-01       2.550467545052e+03 
       1.127876718290e-01       2.380620395886e+03 
       1.165610615682e-01       2.245400782268e+03 
       1.204598419305e-01       2.140538143917e+03 
       1.244885301771e-01       2.055874445457e+03 
       1.286516966130e-01       1.978155727835e+03 
       1.329539798827e-01       1.895022891122e+03 
       1.374001060015e-01       1.799163211920e+03 
       1.419949117348e-01       1.690843818921e+03 
       1.467433729512e-01       1.577280804974e+03 
       1.516506385932e-01       1.468886761508e+03 
       1.567220709496e-01       1.374311461465e+03 
       1.619632929803e-01       1.296777088324e+03 
       1.673802435438e-01       1.233247320398e+03 
       1.729792415279e-01       1.176542413675e+03 
       1.787670600957e-01       1.119363257735e+03 
       1.847510125449e-01       1.058200390041e+03 
       1.909390516748e-01       9.947539115467e+02 
       1.973398850742e-01       9.338889015915e+02 
       2.039631094365e-01       8.797451960778e+02 
       2.108193679242e-01       8.329555820943e+02 
       2.179205358132e-01       7.908026681993e+02 
       2.252799412637e-01       7.498342725426e+02 
       2.329126302225e-01       7.086478515274e+02 
       2.408356873897e-01       6.684676074015e+02 
       2.490686291960e-01       6.312472268717e+02 
       2.576338902994e-01       5.974900619093e+02 
       2.665574329538e-01       5.660155846331e+02 
       2.758695198097e-01       5.355590323770e+02 
       2.856057070201e-01       5.060775177177e+02 
       2.958081386851e-01       4.782611253652e+02 
       3.065272601877e-01       4.522550615692e+02 
       3.178241243945e-01       4.275038347217e+02 
       3.297735539731e-01       4.036584691284e+02 
       3.424685682019e-01       3.808655717721e+02 
       3.560267256574e-01       3.591380805298e+02 
       3.705994549311e-01       3.382004121911e+02 
       3.863862020263e-01       3.179293924580e+02 
       4.036566424847e-01       2.982728741913e+02 
       4.227870017759e-01       2.790333286190e+02 
       4.443223451099e-01       2.600416083844e+02 
       4.690895816795e-01       2.410774440655e+02 
       4.984164781229e-01       2.218335366129e+02 
       5.345895516906e-01       2.018790369718e+02 
       5.818897019313e-01       1.805711018476e+02 
       6.490441106853e-01       1.569673496436e+02 
       7.541154577882e-01       1.301908144706e+02 
       9.230112253983e-01       1.018888613403e+02 
       1.159048339168e+00       7.757724272350e+01 
       1.459087209323e+00       5.871475799321e+01 
       1.836881648385e+00       4.401585478921e+01 
       2.312496985392e+00       3.250174931629e+01 
       2.911261219607e+00       2.353041692560e+01 
       3.665060729735e+00       1.664143949696e+01 
       4.614038088432e+00       1.146746566587e+01 
       5.808729800513e+00       7.690932508484e+00 
       7.312757556112e+00       5.024472841806e+00 
       9.206216317679e+00       3.205554039201e+00 
       1.158993966880e+01       2.003918484609e+00 
