# Matter power spectrum P(k) at redshift z=2.5
# for k=1.71564e-07 to 10.838 h/Mpc,
# number of wavenumbers equal to 140
#    1:k (h/Mpc)              2:P (Mpc/h)^3        
       1.715641364843e-07       1.980614988028e-01 
       2.159864511726e-07       2.486852691770e-01 
       2.719108319844e-07       3.122482836373e-01 
       3.423154561273e-07       3.920577641433e-01 
       4.309496265686e-07       4.922662454056e-01 
       5.425334360904e-07       6.180876342440e-01 
       6.830091294422e-07       7.760684913441e-01 
       8.598575495422e-07       9.744286519943e-01 
       1.082496519642e-06       1.223488906656e+00 
       1.362782376756e-06       1.536207996094e+00 
       1.715641364843e-06       1.928856852020e+00 
       2.159864511726e-06       2.421865169448e+00 
       2.719108319844e-06       3.040884346614e+00 
       3.423154561273e-06       3.818122082827e+00 
       4.309496265686e-06       4.794018043787e+00 
       5.425334360904e-06       6.019347723507e+00 
       6.830091294422e-06       7.557863858628e+00 
       8.598575495422e-06       9.489612569462e+00 
       1.082496519642e-05       1.191509634659e+01 
       1.362782376756e-05       1.496049953254e+01 
       1.715641364843e-05       1.878424635722e+01 
       2.159864511726e-05       2.358522911567e+01 
       2.719108319844e-05       2.961312733630e+01 
       3.423154561273e-05       3.718134046138e+01 
       4.309496265686e-05       4.668317825205e+01 
       5.425334360904e-05       5.861209459937e+01 
       6.830091294422e-05       7.358690470397e+01 
       8.598575495422e-05       9.238307506469e+01 
       1.082496519642e-04       1.159712755308e+02 
       1.362782376756e-04       1.455643398947e+02 
       1.715641364843e-04       1.826734116852e+02 
       2.159864511726e-04       2.291730120963e+02 
       2.719108319844e-04       2.873724791216e+02 
       3.423154561273e-04       3.600868631301e+02 
       4.309496265686e-04       4.506931498723e+02 
       5.425334360904e-04       5.631480910324e+02 
       6.830091294422e-04       7.019361789632e+02 
       8.598575495422e-04       8.719191368903e+02 
       1.082496519642e-03       1.078069308448e+03 
       1.362782376756e-03       1.325030295323e+03 
       1.715641364843e-03       1.616297135410e+03 
       2.159864511726e-03       1.952863715108e+03 
       2.719108319844e-03       2.331657675576e+03 
       3.423154561273e-03       2.743777722840e+03 
       4.309496265686e-03       3.172616144770e+03 
       5.425334360904e-03       3.592476669353e+03 
       6.830091294422e-03       3.968011064925e+03 
       8.598575495422e-03       4.254910651100e+03 
       1.082496519642e-02       4.402560619697e+03 
       1.362782376755e-02       4.360463057064e+03 
       1.715641361504e-02       4.092345345478e+03 
       2.159860877933e-02       3.602461043716e+03 
       2.718435383284e-02       2.968898932914e+03 
       3.394214700662e-02       2.363028471530e+03 
       4.010246725463e-02       1.994680289113e+03 
       4.451397996609e-02       1.810505088281e+03 
       4.807483620241e-02       1.690417370451e+03 
       5.121843254610e-02       1.595227181914e+03 
       5.413137573079e-02       1.510482807811e+03 
       5.690965147354e-02       1.429904985220e+03 
       5.960965190332e-02       1.350769423269e+03 
       6.226785823134e-02       1.272226708198e+03 
       6.490967353779e-02       1.194524171430e+03 
       6.755386361764e-02       1.118552384322e+03 
       7.021499067850e-02       1.045524459715e+03 
       7.290483967655e-02       9.767240396802e+02 
       7.563330024720e-02       9.133013395267e+02 
       7.840893627342e-02       8.561154142230e+02 
       8.123936712874e-02       8.056237345577e+02 
       8.413153052782e-02       7.618196726766e+02 
       8.709186822335e-02       7.242164728311e+02 
       9.012645982129e-02       6.918780092163e+02 
       9.324112073046e-02       6.634977974731e+02 
       9.644147470649e-02       6.375312893352e+02 
       9.973300801497e-02       6.123819159225e+02 
       1.031211100615e-01       5.866295884379e+02 
       1.066111039279e-01       5.592680129001e+02 
       1.102082693296e-01       5.298970545034e+02 
       1.139178598967e-01       4.988075317213e+02 
       1.177451162714e-01       4.669134824611e+02 
       1.216952762444e-01       4.355289449290e+02 
       1.257735829736e-01       4.060394613666e+02 
       1.299852922103e-01       3.795556979424e+02 
       1.343356793857e-01       3.566416519029e+02 
       1.388300473616e-01       3.371850097118e+02 
       1.434737356228e-01       3.204410935931e+02 
       1.482721316666e-01       3.052493042234e+02 
       1.532306853364e-01       2.903832437239e+02 
       1.583549268355e-01       2.749437126075e+02 
       1.636504891541e-01       2.586518768124e+02 
       1.691231356431e-01       2.419031833095e+02 
       1.747787934780e-01       2.255369225034e+02 
       1.806235937802e-01       2.104230420777e+02 
       1.866639192091e-01       1.970664447592e+02 
       1.929064599136e-01       1.854137312234e+02 
       1.993582788513e-01       1.749402622909e+02 
       2.060268876555e-01       1.649630289420e+02 
       2.129203344780e-01       1.550114927382e+02 
       2.200473055762e-01       1.450434360336e+02 
       2.274172428686e-01       1.353761396790e+02 
       2.350404803000e-01       1.263968408987e+02 
       2.429284026671e-01       1.182730646157e+02 
       2.510936316295e-01       1.108671101931e+02 
       2.595502450539e-01       1.038891591024e+02 
       2.683140377299e-01       9.713901528595e+01 
       2.774028340288e-01       9.062668889167e+01 
       2.868368665103e-01       8.448555929707e+01 
       2.966392391762e-01       7.879409846371e+01 
       3.068365005838e-01       7.349617919659e+01 
       3.174593611978e-01       6.848007009702e+01 
       3.285436024496e-01       6.369615252894e+01 
       3.401312440055e-01       5.917020805370e+01 
       3.522720638982e-01       5.492221034740e+01 
       3.650256086867e-01       5.092011569783e+01 
       3.784638963840e-01       4.712158393816e+01 
       3.926751185177e-01       4.351643783021e+01 
       4.077688158371e-01       4.010379655532e+01 
       4.238832832400e-01       3.686372106423e+01 
       4.411964451127e-01       3.377462150019e+01 
       4.599423133368e-01       3.082509103878e+01 
       4.804367701916e-01       2.799901053034e+01 
       5.031196188513e-01       2.527622982893e+01 
       5.286264816706e-01       2.263767023150e+01 
       5.579187693018e-01       2.005936102837e+01 
       5.925345209278e-01       1.751230312624e+01 
       6.351103867895e-01       1.495962336086e+01 
       6.905570821404e-01       1.235424013988e+01 
       7.688422275209e-01       9.644400942259e+00 
       8.906898361033e-01       6.843727241732e+00 
       1.087200373703e+00       4.272308020663e+00 
       1.364506702131e+00       2.476958996084e+00 
       1.717706086920e+00       1.414259973426e+00 
       2.162463296199e+00       8.014476113195e-01 
       2.722379995232e+00       4.511457407188e-01 
       3.427273356557e+00       2.524144388898e-01 
       4.314681521735e+00       1.404419325684e-01 
       5.431862211511e+00       7.774399717564e-02 
       6.838309371436e+00       4.283550747043e-02 
       8.608921441410e+00       2.349987697997e-02 
       1.083798997073e+01       1.284073925152e-02 
