# Matter power spectrum P(k) at redshift z=0.5
# for k=2.17894e-07 to 10.9323 h/Mpc,
# number of wavenumbers equal to 139
#    1:k (h/Mpc)              2:P (Mpc/h)^3        
       2.178937115226e-07       4.420366977774e-01 
       2.743119305059e-07       5.522660238468e-01 
       3.453382600722e-07       6.899828963267e-01 
       4.347551112697e-07       8.620417995362e-01 
       5.473242574848e-07       1.077006499226e+00 
       6.890404162390e-07       1.345576280414e+00 
       8.674504897565e-07       1.681118474906e+00 
       1.092055465028e-06       2.100333783001e+00 
       1.374816376012e-06       2.624087503455e+00 
       1.730791272312e-06       3.278448043206e+00 
       2.178937115226e-06       4.095984393496e+00 
       2.743119305059e-06       5.117387146535e+00 
       3.453382600722e-06       6.393493727771e+00 
       4.347551112697e-06       7.987818626650e+00 
       5.473242574848e-06       9.979714530590e+00 
       6.890404162390e-06       1.246832163947e+01 
       8.674504897565e-06       1.557750160140e+01 
       1.092055465028e-05       1.946200140381e+01 
       1.374816376012e-05       2.431515352951e+01 
       1.730791272312e-05       3.037849468888e+01 
       2.178937115226e-05       3.795377998969e+01 
       2.743119305059e-05       4.741798681225e+01 
       3.453382600722e-05       5.924204781366e+01 
       4.347551112697e-05       7.401423091944e+01 
       5.473242574848e-05       9.246930128687e+01 
       6.890404162390e-05       1.155248600766e+02 
       8.674504897565e-05       1.443265572829e+02 
       1.092055465028e-04       1.803042103386e+02 
       1.374816376012e-04       2.252411952517e+02 
       1.730791272312e-04       2.813597392503e+02 
       2.178937115226e-04       3.514247869328e+02 
       2.743119305059e-04       4.388686731028e+02 
       3.453382600722e-04       5.479375110426e+02 
       4.347551112697e-04       6.838575246796e+02 
       5.473242574848e-04       8.530153069120e+02 
       6.890404162390e-04       1.063140702263e+03 
       8.674504897565e-04       1.323474828165e+03 
       1.092055465028e-03       1.644890811818e+03 
       1.374816376012e-03       2.039886579491e+03 
       1.730791272312e-03       2.522293315132e+03 
       2.178937115226e-03       3.106527682955e+03 
       2.743119305059e-03       3.806245152812e+03 
       3.453382600722e-03       4.632016993823e+03 
       4.347551112697e-03       5.587880100467e+03 
       5.473242574848e-03       6.647268510853e+03 
       6.890404162390e-03       7.812545475962e+03 
       8.674504897565e-03       9.016167927045e+03 
       1.092055465028e-02       1.016491919880e+04 
       1.374816376012e-02       1.111812054009e+04 
       1.730791272296e-02       1.168818170810e+04 
       2.178937050554e-02       1.167095067129e+04 
       2.743084209686e-02       1.093654955184e+04 
       3.449695239223e-02       9.591110368538e+03 
       4.252411025720e-02       8.179927659432e+03 
       4.885079454692e-02       7.362027237931e+03 
       5.353859926651e-02       6.916842255379e+03 
       5.747637702821e-02       6.618662090138e+03 
       6.102688295232e-02       6.385314835063e+03 
       6.435740068395e-02       6.179534851234e+03 
       6.755878141940e-02       5.981293891924e+03 
       7.068651619283e-02       5.779131818194e+03 
       7.377756769484e-02       5.566879287299e+03 
       7.685827710119e-02       5.342199441291e+03 
       7.994847860740e-02       5.105778115003e+03 
       8.306381508792e-02       4.860710323041e+03 
       8.621712417106e-02       4.611895023222e+03 
       8.941931001589e-02       4.365373205812e+03 
       9.267991425413e-02       4.127612343604e+03 
       9.600750259557e-02       3.904780090258e+03 
       9.940993393272e-02       3.702065769186e+03 
       1.028945519456e-01       3.523106051339e+03 
       1.064683240374e-01       3.369555556624e+03 
       1.101379435187e-01       3.240826823981e+03 
       1.139099055437e-01       3.134018782716e+03 
       1.177905639263e-01       3.044066641120e+03 
       1.217861738010e-01       2.964167778598e+03 
       1.259029236930e-01       2.886545673896e+03 
       1.301469596320e-01       2.803569478979e+03 
       1.345244033313e-01       2.709130725298e+03 
       1.390413660422e-01       2.600009249765e+03 
       1.437039594219e-01       2.476817999829e+03 
       1.485183045743e-01       2.344111550576e+03 
       1.534905403086e-01       2.209450192549e+03 
       1.586268315838e-01       2.081576582821e+03 
       1.639333790672e-01       1.968206436117e+03 
       1.694164306993e-01       1.874057995701e+03 
       1.750822961465e-01       1.799614709483e+03 
       1.809373650035e-01       1.740893200624e+03 
       1.869881296060e-01       1.690356019755e+03 
       1.932412133048e-01       1.639013773485e+03 
       1.997034050633e-01       1.579423609509e+03 
       2.063817012502e-01       1.508610046018e+03 
       2.132833555415e-01       1.429409701252e+03 
       2.204159379064e-01       1.349184161457e+03 
       2.277874037596e-01       1.276322619648e+03 
       2.354061745217e-01       1.216327449010e+03 
       2.432812310589e-01       1.169398737410e+03 
       2.514222218021e-01       1.130538761972e+03 
       2.598395877835e-01       1.092218562889e+03 
       2.685447074296e-01       1.048618435285e+03 
       2.775500647411e-01       9.991076798751e+02 
       2.868694455410e-01       9.483140018715e+02 
       2.965181678608e-01       9.024346024427e+02 
       3.065133543750e-01       8.646257133384e+02 
       3.168742572514e-01       8.329597448647e+02 
       3.276226490824e-01       8.023601487555e+02 
       3.387832980539e-01       7.690675758511e+02 
       3.503845516735e-01       7.338169333996e+02 
       3.624590619871e-01       7.004813139962e+02 
       3.750446973782e-01       6.716108138056e+02 
       3.881857035421e-01       6.458399035517e+02 
       4.019342018128e-01       6.199598772957e+02 
       4.163521511622e-01       5.930345651736e+02 
       4.315139582087e-01       5.671117417675e+02 
       4.475100098568e-01       5.436375971619e+02 
       4.644515472060e-01       5.212867865808e+02 
       4.824775355373e-01       4.985955608763e+02 
       5.017645846068e-01       4.763832282595e+02 
       5.225416728272e-01       4.553784474551e+02 
       5.451127022541e-01       4.345460712492e+02 
       5.698923349235e-01       4.136832427603e+02 
       5.974654128515e-01       3.931706115621e+02 
       6.286905492670e-01       3.723100299518e+02 
       6.648917306325e-01       3.510110578846e+02 
       7.082381135369e-01       3.286915080886e+02 
       7.625579555439e-01       3.046791483622e+02 
       8.352187451179e-01       2.777498247443e+02 
       9.415301858683e-01       2.460187518683e+02 
       1.111780741243e+00       2.075239374593e+02 
       1.377510542193e+00       1.650383695896e+02 
       1.732675676903e+00       1.264231981038e+02 
       2.181287801822e+00       9.376531478674e+01 
       2.746078586162e+00       6.698333697699e+01 
       3.457108114882e+00       4.603185831584e+01 
       4.352241257145e+00       3.053541619100e+01 
       5.479147116879e+00       1.966387143244e+01 
       6.897837540398e+00       1.236572131130e+01 
       8.683862966035e+00       7.634191263815e+00 
       1.093233576048e+01       4.647603346454e+00 
