# Matter power spectrum P(k) at redshift z=2.5
# for k=2.27323e-07 to 11.4074 h/Mpc,
# number of wavenumbers equal to 139
#    1:k (h/Mpc)              2:P (Mpc/h)^3        
       2.273231231930e-07       9.417037915296e-02 
       2.861828564761e-07       1.179788935055e-01 
       3.602828704376e-07       1.478067672192e-01 
       4.535692610280e-07       1.851758377380e-01 
       5.710098687169e-07       2.319926990164e-01 
       7.188588341129e-07       2.906459774987e-01 
       9.049896537575e-07       3.641282010392e-01 
       1.139314472526e-06       4.561884796142e-01 
       1.434311941488e-06       5.715237869456e-01 
       1.805691751579e-06       7.160186026138e-01 
       2.273231231930e-06       8.970451406551e-01 
       2.861828564761e-06       1.123839483070e+00 
       3.602828704376e-06       1.407972804967e+00 
       4.535692610280e-06       1.763941735603e+00 
       5.710098687169e-06       2.209907966824e+00 
       7.188588341129e-06       2.768624838582e+00 
       9.049896537575e-06       3.468598159374e+00 
       1.139314472526e-05       4.345540448100e+00 
       1.434311941488e-05       5.444192732299e+00 
       1.805691751579e-05       6.820606705198e+00 
       2.273231231930e-05       8.545003421464e+00 
       2.861828564761e-05       1.070535382599e+01 
       3.602828704376e-05       1.341186274306e+01 
       4.535692610280e-05       1.680258297147e+01 
       5.710098687169e-05       2.105044170272e+01 
       7.188588341129e-05       2.637202940586e+01 
       9.049896537575e-05       3.303858310110e+01 
       1.139314472526e-04       4.138969164284e+01 
       1.434311941488e-04       5.185035796011e+01 
       1.805691751579e-04       6.495216232500e+01 
       2.273231231930e-04       8.135936003325e+01 
       2.861828564761e-04       1.019007697810e+02 
       3.602828704376e-04       1.276081787728e+02 
       4.535692610280e-04       1.597615617531e+02 
       5.710098687169e-04       1.999404843160e+02 
       7.188588341129e-04       2.500794667698e+02 
       9.049896537575e-04       3.125229330089e+02 
       1.139314472526e-03       3.900732437140e+02 
       1.434311941488e-03       4.860229427955e+02 
       1.805691751579e-03       6.041488082037e+02 
       2.273231231930e-03       7.486324284947e+02 
       2.861828564761e-03       9.238136432157e+02 
       3.602828704376e-03       1.133732628066e+03 
       4.535692610280e-03       1.381394536943e+03 
       5.710098687169e-03       1.667553667036e+03 
       7.188588341129e-03       1.988897383959e+03 
       9.049896537575e-03       2.335505343500e+03 
       1.139314472526e-02       2.687491434130e+03 
       1.434311941488e-02       3.011368708463e+03 
       1.805691751514e-02       3.258138225346e+03 
       2.273231043448e-02       3.368403060192e+03 
       2.861750336888e-02       3.293619495573e+03 
       3.596226071549e-02       3.040230257047e+03 
       4.397911761912e-02       2.738026132877e+03 
       5.002256689554e-02       2.550569060492e+03 
       5.459477838738e-02       2.436363396511e+03 
       5.848867968090e-02       2.353418618343e+03 
       6.202570047892e-02       2.284915944709e+03 
       6.535822992287e-02       2.222600382334e+03 
       6.857072699824e-02       2.161761505116e+03 
       7.171554056698e-02       2.099556179365e+03 
       7.482793259578e-02       2.034353450191e+03 
       7.793325870014e-02       1.965441052499e+03 
       8.105075409123e-02       1.892865621004e+03 
       8.419568617537e-02       1.817310886398e+03 
       8.738065355986e-02       1.739972314754e+03 
       9.061640848849e-02       1.662410725268e+03 
       9.391239840649e-02       1.586381056104e+03 
       9.727713432695e-02       1.513644981152e+03 
       1.007184481925e-01       1.445778863080e+03 
       1.042436766730e-01       1.383993193776e+03 
       1.078597947590e-01       1.328979178316e+03 
       1.115735141934e-01       1.280797321793e+03 
       1.153913567108e-01       1.238821785873e+03 
       1.193197088754e-01       1.201757523415e+03 
       1.233648632688e-01       1.167748862526e+03 
       1.275330494542e-01       1.134594044401e+03 
       1.318304572619e-01       1.100067459307e+03 
       1.362632543595e-01       1.062318897632e+03 
       1.408375996815e-01       1.020278881313e+03 
       1.455596540348e-01       9.739611189016e+02 
       1.504355890269e-01       9.245487352216e+02 
       1.554715953564e-01       8.741924850384e+02 
       1.606738914353e-01       8.255327766288e+02 
       1.660487332695e-01       7.810534765779e+02 
       1.716024264978e-01       7.424346279075e+02 
       1.773413414718e-01       7.100767531932e+02 
       1.832719322469e-01       6.829327414103e+02 
       1.894007603490e-01       6.587362193209e+02 
       1.957345241760e-01       6.346480188667e+02 
       2.022800949036e-01       6.082111026230e+02 
       2.090445597789e-01       5.783056455517e+02 
       2.160352737301e-01       5.456555421039e+02 
       2.232599202885e-01       5.125429176787e+02 
       2.307265829335e-01       4.817745358882e+02 
       2.384438281419e-01       4.553729869256e+02 
       2.464208016690e-01       4.336275172816e+02 
       2.546673399311e-01       4.149742384139e+02 
       2.631940988288e-01       3.968318910668e+02 
       2.720127029761e-01       3.770709318775e+02 
       2.811359191369e-01       3.553015879821e+02 
       2.905778587734e-01       3.330502760895e+02 
       3.003542160711e-01       3.125823616567e+02 
       3.104825497417e-01       2.952069010073e+02 
       3.209826194918e-01       2.803477745430e+02 
       3.318767915268e-01       2.661142117172e+02 
       3.431905322006e-01       2.509761016075e+02 
       3.549530154530e-01       2.351029232346e+02 
       3.671978788047e-01       2.200062164046e+02 
       3.799641756189e-01       2.068061943700e+02 
       3.932975899907e-01       1.950272296886e+02 
       4.072520079785e-01       1.833098754189e+02 
       4.218915797836e-01       1.711825533809e+02 
       4.372934698944e-01       1.595265026720e+02 
       4.535515896791e-01       1.490488612390e+02 
       4.707817629964e-01       1.391699570910e+02 
       4.891290325048e-01       1.291735163514e+02 
       5.087782513409e-01       1.194649395176e+02 
       5.299698742555e-01       1.104500628306e+02 
       5.530242721031e-01       1.016007495598e+02 
       5.783805963151e-01       9.284388311132e+01 
       6.066616748985e-01       8.444528329260e+01 
       6.387880927952e-01       7.605203189542e+01 
       6.761912660526e-01       6.773965490539e+01 
       7.212405966387e-01       5.930271176405e+01 
       7.781700063960e-01       5.063112968174e+01 
       8.552370044492e-01       4.149213980202e+01 
       9.697061416642e-01       3.171020703002e+01 
       1.154436092473e+00       2.167463013804e+01 
       1.436817065308e+00       1.329926272850e+01 
       1.807961399374e+00       7.869185848028e+00 
       2.276078520098e+00       4.600299340771e+00 
       2.865413067898e+00       2.662876882135e+00 
       3.607341326459e+00       1.527752565075e+00 
       4.541373664895e+00       8.694904819623e-01 
       5.717250711189e+00       4.912631827695e-01 
       7.197592205914e+00       2.757334752112e-01 
       9.061231731756e+00       1.538311760572e-01 
       1.140741488926e+01       8.534968757906e-02 
