# Matter power spectrum P(k) at redshift z=1
# for k=1.62296e-07 to 10.252 h/Mpc,
# number of wavenumbers equal to 140
#    1:k (h/Mpc)              2:P (Mpc/h)^3        
       1.622961352912e-07       9.226780754065e-01 
       2.043187289540e-07       1.154038242351e+00 
       2.572220399857e-07       1.443411629453e+00 
       3.238233626116e-07       1.805344965160e+00 
       4.076694601243e-07       2.258032547971e+00 
       5.132254429629e-07       2.824230867880e+00 
       6.461125521253e-07       3.532402567812e+00 
       8.134075107498e-07       4.418147249326e+00 
       1.024019385427e-06       5.525991047604e+00 
       1.289164026484e-06       6.911624932996e+00 
       1.622961352912e-06       8.644704249251e+00 
       2.043187289540e-06       1.081235020541e+01 
       2.572220399857e-06       1.352352930933e+01 
       3.238233626116e-06       1.691453083045e+01 
       4.076694601243e-06       2.115581752047e+01 
       5.132254429629e-06       2.646059372787e+01 
       6.461125521253e-06       3.309552112856e+01 
       8.134075107498e-06       4.139411979983e+01 
       1.024019385427e-05       5.177352633152e+01 
       1.289164026484e-05       6.475544766017e+01 
       1.622961352912e-05       8.099235632566e+01 
       2.043187289540e-05       1.013002290791e+02 
       2.572220399857e-05       1.266994448758e+02 
       3.238233626116e-05       1.584658395304e+02 
       4.076694601243e-05       1.981943673703e+02 
       5.132254429629e-05       2.478783409085e+02 
       6.461125521253e-05       3.100077800360e+02 
       8.134075107498e-05       3.876909276150e+02 
       1.024019385427e-04       4.848033077646e+02 
       1.289164026484e-04       6.061684676201e+02 
       1.622961352912e-04       7.577730918649e+02 
       2.043187289540e-04       9.470153722053e+02 
       2.572220399857e-04       1.182977658034e+03 
       3.238233626116e-04       1.476700708212e+03 
       4.076694601243e-04       1.841417280433e+03 
       5.132254429629e-04       2.292682836621e+03 
       6.461125521253e-04       2.848331441214e+03 
       8.134075107498e-04       3.528171654426e+03 
       1.024019385427e-03       4.353212926930e+03 
       1.289164026484e-03       5.343901160815e+03 
       1.622961352912e-03       6.516868985773e+03 
       2.043187289540e-03       7.880217610932e+03 
       2.572220399857e-03       9.427262669832e+03 
       3.238233626116e-03       1.112887251279e+04 
       4.076694601243e-03       1.292348713311e+04 
       5.132254429629e-03       1.469970004162e+04 
       6.461125521253e-03       1.631439020383e+04 
       8.134075107498e-03       1.754688528445e+04 
       1.024019385427e-02       1.812274784201e+04 
       1.289164026484e-02       1.773386387601e+04 
       1.622961348705e-02       1.612757878572e+04 
       2.043183030353e-02       1.330672281354e+04 
       2.571476733233e-02       9.801871322467e+03 
       3.207842231341e-02       6.771843675584e+03 
       3.778948370334e-02       5.291616455666e+03 
       4.188505545362e-02       4.761257472075e+03 
       4.520550411535e-02       4.533234557069e+03 
       4.814369977994e-02       4.412345520774e+03 
       5.086993207481e-02       4.322620325059e+03 
       5.347229878855e-02       4.226040604643e+03 
       5.600277027682e-02       4.101726361755e+03 
       5.849506995417e-02       3.939301523049e+03 
       6.097273694917e-02       3.736311788154e+03 
       6.345319438054e-02       3.496763623701e+03 
       6.594998506440e-02       3.229761971992e+03 
       6.847408468256e-02       2.947912932310e+03 
       7.103471517362e-02       2.665488346381e+03 
       7.363987079664e-02       2.396543823688e+03 
       7.629667067459e-02       2.153261905528e+03 
       7.901160209753e-02       1.944765457352e+03 
       8.179069254889e-02       1.776522117805e+03 
       8.463963374993e-02       1.650280778082e+03 
       8.756387250279e-02       1.564323751855e+03 
       9.056867799552e-02       1.513770331220e+03 
       9.365919206528e-02       1.490781113064e+03 
       9.684046690721e-02       1.484765683208e+03 
       1.001174934159e-01       1.482958596808e+03 
       1.034952224935e-01       1.471807764377e+03 
       1.069785810897e-01       1.439351783074e+03 
       1.105724843661e-01       1.378162073809e+03 
       1.142818451201e-01       1.287781914505e+03 
       1.181115814444e-01       1.175383994795e+03 
       1.220666234861e-01       1.053951399495e+03 
       1.261519201032e-01       9.384927744245e+02 
       1.303724461715e-01       8.418585131959e+02 
       1.347332112696e-01       7.717836144892e+02 
       1.392392704516e-01       7.297658238451e+02 
       1.438957378053e-01       7.112472049580e+02 
       1.487078034895e-01       7.064646497472e+02 
       1.536807549339e-01       7.022960584840e+02 
       1.588200028936e-01       6.859747621084e+02 
       1.641311130527e-01       6.502149937938e+02 
       1.696198439010e-01       5.969158918131e+02 
       1.752921916455e-01       5.362559476155e+02 
       1.811544429962e-01       4.812023360367e+02 
       1.872132367753e-01       4.411617683650e+02 
       1.934756354644e-01       4.184225632414e+02 
       1.999492080398e-01       4.080079277045e+02 
       2.066421257665e-01       4.001357663353e+02 
       2.135632730579e-01       3.851503657408e+02 
       2.207223760881e-01       3.594079501181e+02 
       2.281301526153e-01       3.275525598531e+02 
       2.357984874894e-01       2.984021289574e+02 
       2.437406396685e-01       2.781038522324e+02 
       2.519714883567e-01       2.662794651447e+02 
       2.605078282843e-01       2.571017315218e+02 
       2.693687274012e-01       2.442829071344e+02 
       2.785759647161e-01       2.266093636022e+02 
       2.881545721939e-01       2.084781972150e+02 
       2.981335133371e-01       1.945678999678e+02 
       3.085465435170e-01       1.849483363721e+02 
       3.194333152281e-01       1.757465791860e+02 
       3.308408182390e-01       1.642510760651e+02 
       3.428252851106e-01       1.521322405605e+02 
       3.554547550759e-01       1.422350993102e+02 
       3.688125881727e-01       1.341313715247e+02 
       3.830023821600e-01       1.254653152793e+02 
       3.981550135684e-01       1.163298724558e+02 
       4.144389893115e-01       1.083696946588e+02 
       4.320761307204e-01       1.009922020630e+02 
       4.513661777796e-01       9.328428054798e+01 
       4.727269818705e-01       8.609147778799e+01 
       4.967633578150e-01       7.907206713899e+01 
       5.243918244965e-01       7.204270978635e+01 
       5.570819832743e-01       6.507677133973e+01 
       5.973602808539e-01       5.796072203143e+01 
       6.499475330641e-01       5.052050123457e+01 
       7.244521989995e-01       4.252674674547e+01 
       8.407975070175e-01       3.384929401991e+01 
       1.028064488894e+00       2.522658226065e+01 
       1.290723600537e+00       1.839090040466e+01 
       1.624840357719e+00       1.352861832275e+01 
       2.045552408291e+00       1.001189602973e+01 
       2.575197907660e+00       7.401166813574e+00 
       3.241982086352e+00       5.426940394143e+00 
       4.081413633090e+00       3.922036618488e+00 
       5.138195338740e+00       2.778861733934e+00 
       6.468604682702e+00       1.922824478349e+00 
       8.143490813905e+00       1.296403824616e+00 
       1.025204752634e+01       8.509942530692e-01 
