# Matter power spectrum P(k) at redshift z=1.5
# for k=1.90052e-07 to 12.0069 h/Mpc,
# number of wavenumbers equal to 140
#    1:k (h/Mpc)              2:P (Mpc/h)^3        
       1.900519824239e-07       3.737765097049e-01 
       2.392612702353e-07       4.675650104351e-01 
       3.012120931573e-07       5.848870465716e-01 
       3.792035584154e-07       7.316476840209e-01 
       4.773889959320e-07       9.152336952180e-01 
       6.009971382897e-07       1.144885350544e+00 
       7.566105698084e-07       1.432161499935e+00 
       9.525162731639e-07       1.791521352254e+00 
       1.199146941434e-06       2.241052234771e+00 
       1.509636557046e-06       2.803379959618e+00 
       1.900519824239e-06       3.506807614532e+00 
       2.392612702353e-06       4.386740089556e+00 
       3.012120931573e-06       5.487466027187e+00 
       3.792035584154e-06       6.864386854706e+00 
       4.773889959320e-06       8.586805042369e+00 
       6.009971382897e-06       1.074141182192e+01 
       7.566105698084e-06       1.343664970095e+01 
       9.525162731639e-06       1.680816894370e+01 
       1.199146941434e-05       2.102565184959e+01 
       1.509636557046e-05       2.630134669243e+01 
       1.900519824239e-05       3.290073769823e+01 
       2.392612702353e-05       4.115588179916e+01 
       3.012120931573e-05       5.148207096793e+01 
       3.792035584154e-05       6.439863411972e+01 
       4.773889959320e-05       8.055487672101e+01 
       6.009971382897e-05       1.007623672755e+02 
       7.566105698084e-05       1.260350052518e+02 
       9.525162731639e-05       1.576385128329e+02 
       1.199146941434e-04       1.971511083795e+02 
       1.509636557046e-04       2.465369908095e+02 
       1.900519824239e-04       3.082335976172e+02 
       2.392612702353e-04       3.852518724814e+02 
       3.012120931573e-04       4.812851657160e+02 
       3.792035584154e-04       6.008158603984e+02 
       4.773889959320e-04       7.491988435148e+02 
       6.009971382897e-04       9.326894559251e+02 
       7.566105698084e-04       1.158377237786e+03 
       9.525162731639e-04       1.433990727736e+03 
       1.199146941434e-03       1.767521419561e+03 
       1.509636557046e-03       2.166489568783e+03 
       1.900519824239e-03       2.636554904509e+03 
       2.392612702353e-03       3.179525439783e+03 
       3.012120931573e-03       3.790932646247e+03 
       3.792035584154e-03       4.457183787222e+03 
       4.773889959320e-03       5.152649896515e+03 
       6.009971382897e-03       5.833334528098e+03 
       7.566105698084e-03       6.450891343916e+03 
       9.525162731639e-03       6.933462878069e+03 
       1.199146941434e-02       7.202482292377e+03 
       1.509636557046e-02       7.179478213426e+03 
       1.900519822124e-02       6.806340565903e+03 
       2.392610055027e-02       6.082368930883e+03 
       3.011571211221e-02       5.112113912503e+03 
       3.765955301869e-02       4.137719362038e+03 
       4.474527989461e-02       3.497376494362e+03 
       4.981491949954e-02       3.164516578389e+03 
       5.387135878382e-02       2.944241918812e+03 
       5.743591435391e-02       2.769472401173e+03 
       6.073026544862e-02       2.615747333153e+03 
       6.386716108157e-02       2.472476554349e+03 
       6.691231297496e-02       2.334942301474e+03 
       6.990797901261e-02       2.201414180328e+03 
       7.288344771719e-02       2.071839262386e+03 
       7.586027257194e-02       1.947107667981e+03 
       7.885512510820e-02       1.828562463332e+03 
       8.188145992757e-02       1.717634598141e+03 
       8.495054068912e-02       1.615560900771e+03 
       8.807210085391e-02       1.523173186246e+03 
       9.125478493302e-02       1.440756412471e+03 
       9.450645212613e-02       1.367975314726e+03 
       9.783439049743e-02       1.303870005832e+03 
       1.012454711180e-01       1.246922474559e+03 
       1.047462607843e-01       1.195195627672e+03 
       1.083431054407e-01       1.146545375110e+03 
       1.120421924373e-01       1.098894795443e+03 
       1.158495972201e-01       1.050540602145e+03 
       1.197713184211e-01       1.000436888178e+03 
       1.238133042375e-01       9.483848356025e+02 
       1.279814722853e-01       8.950601748722e+02 
       1.322817246342e-01       8.418442594562e+02 
       1.367199594178e-01       7.904803016718e+02 
       1.413020802061e-01       7.426350710034e+02 
       1.460340041893e-01       6.994797552425e+02 
       1.509216701395e-01       6.614000939803e+02 
       1.559710470558e-01       6.279118379761e+02 
       1.611881443728e-01       5.978099696721e+02 
       1.665790245831e-01       5.695283645851e+02 
       1.721498191158e-01       5.416240947516e+02 
       1.779067483003e-01       5.132356214275e+02 
       1.838561462422e-01       4.843332350119e+02 
       1.900044914355e-01       4.556368344982e+02 
       1.963584439475e-01       4.282230736463e+02 
       2.029248900386e-01       4.030035302395e+02 
       2.097109951273e-01       3.803222394935e+02 
       2.167242660936e-01       3.598555748732e+02 
       2.239726240455e-01       3.408445828090e+02 
       2.314644888608e-01       3.225258838091e+02 
       2.392088770907e-01       3.045186231505e+02 
       2.472155151821e-01       2.869425511836e+02 
       2.554949704857e-01       2.702121662640e+02 
       2.640588031910e-01       2.546753589472e+02 
       2.729197432259e-01       2.403641180564e+02 
       2.820918973457e-01       2.270180516129e+02 
       2.915909932044e-01       2.143206041495e+02 
       3.014346692877e-01       2.021285246190e+02 
       3.116428223823e-01       1.905054643278e+02 
       3.222380280352e-01       1.795675457304e+02 
       3.332460546281e-01       1.693233085535e+02 
       3.446964988531e-01       1.596650296900e+02 
       3.566235804453e-01       1.504834415519e+02 
       3.690671483977e-01       1.417498127727e+02 
       3.820739717350e-01       1.334799135123e+02 
       3.956994187465e-01       1.256575703290e+02 
       4.100096750333e-01       1.182286325065e+02 
       4.250847222803e-01       1.111507542216e+02 
       4.410224125375e-01       1.044074155836e+02 
       4.579441555843e-01       9.797691702248e+01 
       4.760030418126e-01       9.182365307154e+01 
       4.953957485046e-01       8.591668884123e+01 
       5.163805172205e-01       8.022858935024e+01 
       5.393052431144e-01       7.472364980285e+01 
       5.646531467827e-01       6.936370332737e+01 
       5.931205831614e-01       6.410459204001e+01 
       6.257570978153e-01       5.889035222421e+01 
       6.642343923015e-01       5.364938511304e+01 
       7.114028986842e-01       4.828211791247e+01 
       7.725384726054e-01       4.264514108259e+01 
       8.582917408117e-01       3.653617228996e+01 
       9.908975267041e-01       2.978165017358e+01 
       1.205393793459e+00       2.278209891140e+01 
       1.511715306913e+00       1.690884201128e+01 
       1.902973814759e+00       1.256581302421e+01 
       2.395701145790e+00       9.326793085351e+00 
       3.016009050645e+00       6.864811301249e+00 
       3.796930436058e+00       4.977733826796e+00 
       4.780052212768e+00       3.536674904446e+00 
       6.017729200356e+00       2.452450567361e+00 
       7.575872211624e+00       1.655707874930e+00 
       9.537458043719e+00       1.087188561407e+00 
       1.200694829516e+01       6.947010305674e-01 
