# Matter power spectrum P(k) at redshift z=1.5
# for k=2.3029e-07 to 11.5582 h/Mpc,
# number of wavenumbers equal to 139
#    1:k (h/Mpc)              2:P (Mpc/h)^3        
       2.302902042064e-07       2.109999208565e-01 
       2.899181901627e-07       2.627436884001e-01 
       3.649853769372e-07       3.271766429601e-01 
       4.594893659595e-07       4.074105692805e-01 
       5.784628392556e-07       5.073203588270e-01 
       7.282415681174e-07       6.317311471999e-01 
       9.168018160278e-07       7.866513435642e-01 
       1.154185103777e-06       9.795628060637e-01 
       1.453032957059e-06       1.219782176711e+00 
       1.829260113815e-06       1.518910827210e+00 
       2.302902042064e-06       1.891395142894e+00 
       2.899181901627e-06       2.355224205228e+00 
       3.649853769372e-06       2.932798563054e+00 
       4.594893659595e-06       3.652012044867e+00 
       5.784628392556e-06       4.547598850026e+00 
       7.282415681174e-06       5.662810955397e+00 
       9.168018160279e-06       7.051506812952e+00 
       1.154185103777e-05       8.780752134334e+00 
       1.453032957059e-05       1.093405821970e+01 
       1.829260113815e-05       1.361541394801e+01 
       2.302902042064e-05       1.695430556014e+01 
       2.899181901627e-05       2.111196556968e+01 
       3.649853769372e-05       2.628915034154e+01 
       4.594893659595e-05       3.273581760778e+01 
       5.784628392556e-05       4.076316266659e+01 
       7.282415681174e-05       5.075857753905e+01 
       9.168018160279e-05       6.320422226453e+01 
       1.154185103777e-04       7.870003965263e+01 
       1.453032957059e-04       9.799219716383e+01 
       1.829260113815e-04       1.220080808478e+02 
       2.302902042064e-04       1.518990525834e+02 
       2.899181901627e-04       1.890921265118e+02 
       3.649853769372e-04       2.353513731802e+02 
       4.594893659595e-04       2.928489957890e+02 
       5.784628392556e-04       3.642443983046e+02 
       7.282415681174e-04       4.527671248728e+02 
       9.168018160279e-04       5.622967288312e+02 
       1.154185103777e-03       6.974296627061e+02 
       1.453032957059e-03       8.635155180062e+02 
       1.829260113815e-03       1.066617279439e+03 
       2.302902042064e-03       1.313306664743e+03 
       2.899181901627e-03       1.610211783550e+03 
       3.649853769372e-03       1.963257417432e+03 
       4.594893659595e-03       2.371198541612e+03 
       5.784628392556e-03       2.841866213811e+03 
       7.282415681174e-03       3.364921774123e+03 
       9.168018160279e-03       3.923095626476e+03 
       1.154185103777e-02       4.484392532460e+03 
       1.453032957059e-02       4.998020661045e+03 
       1.829260113463e-02       5.393677007010e+03 
       2.302901359899e-02       5.591133024835e+03 
       2.898979817168e-02       5.530268523815e+03 
       3.636933050433e-02       5.227511018777e+03 
       4.391608678911e-02       4.865395554118e+03 
       4.939341377315e-02       4.626429945526e+03 
       5.365345024961e-02       4.458652828562e+03 
       5.733999382219e-02       4.322250893657e+03 
       6.071806535840e-02       4.200411717614e+03 
       6.391773832392e-02       4.084716830738e+03 
       6.701292072538e-02       3.970493167083e+03 
       7.005026039757e-02       3.855141622690e+03 
       7.306162112173e-02       3.737428505149e+03 
       7.607017502572e-02       3.617128773215e+03 
       7.909366766371e-02       3.494800500099e+03 
       8.214629830078e-02       3.371600110614e+03 
       8.523986623150e-02       3.249099078809e+03 
       8.838450260484e-02       3.129088253560e+03 
       9.158915563460e-02       3.013370577209e+03 
       9.486192250888e-02       2.903550799985e+03 
       9.821028236474e-02       2.800837569815e+03 
       1.016412633001e-01       2.705875977525e+03 
       1.051615641279e-01       2.618629511270e+03 
       1.087776442832e-01       2.538332025172e+03 
       1.124957908205e-01       2.463529315560e+03 
       1.163221686195e-01       2.392225277804e+03 
       1.202628581063e-01       2.322138285239e+03 
       1.243238836122e-01       2.251054118932e+03 
       1.285112347051e-01       2.177230424224e+03 
       1.328308823102e-01       2.099776403051e+03 
       1.372887910863e-01       2.018906857697e+03 
       1.418909292955e-01       1.935974913632e+03 
       1.466432772527e-01       1.853229051422e+03 
       1.515518353454e-01       1.773316013401e+03 
       1.566226325540e-01       1.698633759542e+03 
       1.618617363626e-01       1.630697712813e+03 
       1.672752649298e-01       1.569698222422e+03 
       1.728694023693e-01       1.514398184509e+03 
       1.786504179846e-01       1.462452889155e+03 
       1.846246902910e-01       1.411126810635e+03 
       1.907987366596e-01       1.358231898304e+03 
       1.971792494266e-01       1.302955323322e+03 
       2.037731393304e-01       1.246190948907e+03 
       2.105875871849e-01       1.190143621832e+03 
       2.176301047733e-01       1.137320772062e+03 
       2.249086060647e-01       1.089364400540e+03 
       2.324314900351e-01       1.046292776093e+03 
       2.402077366287e-01       1.006549684703e+03 
       2.482470177495e-01       9.678848814629e+02 
       2.565598256540e-01       9.286380975583e+02 
       2.651576217583e-01       8.886708258899e+02 
       2.740530097265e-01       8.492996301139e+02 
       2.832599378407e-01       8.122381888026e+02 
       2.927939371394e-01       7.783143498010e+02 
       3.026724038039e-01       7.469277842190e+02 
       3.129149369172e-01       7.166565315665e+02 
       3.235437463057e-01       6.864986012126e+02 
       3.345841500540e-01       6.566438591442e+02 
       3.460651880335e-01       6.280538977513e+02 
       3.580203872366e-01       6.013228945031e+02 
       3.704887281582e-01       5.760660151630e+02 
       3.835158809063e-01       5.514760678786e+02 
       3.971558083466e-01       5.272988265693e+02 
       4.114728765382e-01       5.039552874635e+02 
       4.265446785577e-01       4.817295785845e+02 
       4.424658811200e-01       4.603059620347e+02 
       4.593535697288e-01       4.393226732270e+02 
       4.773548436679e-01       4.188688894396e+02 
       4.966578836322e-01       3.990445964274e+02 
       5.175085511323e-01       3.796101677207e+02 
       5.402361241875e-01       3.604194739028e+02 
       5.652947649374e-01       3.414523678869e+02 
       5.933334177725e-01       3.224889079326e+02 
       6.253200557360e-01       3.033314565599e+02 
       6.627767944193e-01       2.836874288075e+02 
       7.082583495529e-01       2.631166747141e+02 
       7.664061296901e-01       2.409398048482e+02 
       8.464271661379e-01       2.160903784112e+02 
       9.676347663471e-01       1.870962385430e+02 
       1.164212715842e+00       1.536134860196e+02 
       1.455408251334e+00       1.205265568638e+02 
       1.831848169122e+00       9.232902522248e+01 
       2.306156876154e+00       6.869982707810e+01 
       2.903279490352e+00       4.920491816183e+01 
       3.655012327944e+00       3.380858558605e+01 
       4.601387900070e+00       2.235629934486e+01 
       5.792804156920e+00       1.432296896538e+01 
       7.292708358693e+00       8.953019978058e+00 
       9.180975873563e+00       5.493549718032e+00 
       1.155816383230e+01       3.325101506298e+00 
