# Matter power spectrum P(k) at redshift z=1
# for k=2.0417e-07 to 10.2446 h/Mpc,
# number of wavenumbers equal to 139
#    1:k (h/Mpc)              2:P (Mpc/h)^3        
       2.041702171830e-07       2.977424607158e-01 
       2.570350747432e-07       3.731219281876e-01 
       3.235879873166e-07       4.675852174950e-01 
       4.073731401842e-07       5.859637802406e-01 
       5.128523982602e-07       7.343122465451e-01 
       6.456429166694e-07       9.202180970340e-01 
       8.128162747400e-07       1.153189734351e+00 
       1.023275063390e-06       1.445142802328e+00 
       1.288226980557e-06       1.811009625636e+00 
       1.621781681982e-06       2.269502941076e+00 
       2.041702171830e-06       2.844072977884e+00 
       2.570350747432e-06       3.564106838492e+00 
       3.235879873166e-06       4.466431515628e+00 
       4.073731401842e-06       5.597197405664e+00 
       5.128523982602e-06       7.014238629555e+00 
       6.456429166694e-06       8.790030831378e+00 
       8.128162747400e-06       1.101539763484e+01 
       1.023275063390e-05       1.380415513029e+01 
       1.288226980557e-05       1.729893154581e+01 
       1.621781681982e-05       2.167845896442e+01 
       2.041702171830e-05       2.716670848202e+01 
       2.570350747432e-05       3.404433292156e+01 
       3.235879873166e-05       4.266299621424e+01 
       4.073731401842e-05       5.346331013454e+01 
       5.128523982602e-05       6.699727158166e+01 
       6.456429166694e-05       8.395630013390e+01 
       8.128162747400e-05       1.052062151738e+02 
       1.023275063390e-04       1.318307551199e+02 
       1.288226980557e-04       1.651854988659e+02 
       1.621781681982e-04       2.069642354686e+02 
       2.041702171830e-04       2.592798074454e+02 
       2.570350747432e-04       3.247609776920e+02 
       3.235879873166e-04       4.066655389459e+02 
       4.073731401842e-04       5.090071761567e+02 
       5.128523982602e-04       6.366891487154e+02 
       6.456429166694e-04       7.956321675518e+02 
       8.128162747400e-04       9.928784308370e+02 
       1.023275063390e-03       1.236646335330e+03 
       1.288226980557e-03       1.536280039394e+03 
       1.621781681982e-03       1.901958715357e+03 
       2.041702171830e-03       2.343991584189e+03 
       2.570350747432e-03       2.871605691929e+03 
       3.235879873166e-03       3.491025049881e+03 
       4.073731401842e-03       4.202712148232e+03 
       5.128523982602e-03       4.988496324968e+03 
       6.456429166694e-03       5.838351625296e+03 
       8.128162747400e-03       6.701849436423e+03 
       1.023275063390e-02       7.508335906714e+03 
       1.288226980557e-02       8.157073377535e+03 
       1.621781681953e-02       8.521308599291e+03 
       2.041702070683e-02       8.472924990490e+03 
       2.570302707647e-02       7.944714936701e+03 
       3.231352569502e-02       7.030653056370e+03 
       3.968479419532e-02       6.105287500786e+03 
       4.535971563005e-02       5.566153016237e+03 
       4.960729946002e-02       5.250357996781e+03 
       5.320019404592e-02       5.022245563336e+03 
       5.645183434186e-02       4.832364333524e+03 
       5.950876177009e-02       4.658510637417e+03 
       6.245137356484e-02       4.489240353914e+03 
       6.532913604229e-02       4.318547161485e+03 
       6.817518277206e-02       4.143752834147e+03 
       7.101323161328e-02       3.964489795921e+03 
       7.386120778415e-02       3.782079777869e+03 
       7.673329331089e-02       3.599048028057e+03 
       7.964115873352e-02       3.418672010171e+03 
       8.259474034134e-02       3.244534969129e+03 
       8.560275057488e-02       3.080089653789e+03 
       8.867302441059e-02       2.928254578485e+03 
       9.181276091355e-02       2.791069304752e+03 
       9.502869548333e-02       2.669433856006e+03 
       9.832722490097e-02       2.562953436290e+03 
       1.017144993806e-01       2.469907609529e+03 
       1.051964910191e-01       2.387365118817e+03 
       1.087790450291e-01       2.311468198136e+03 
       1.124679182139e-01       2.237898916041e+03 
       1.162688078915e-01       2.162510833531e+03 
       1.201873736439e-01       2.082051639925e+03 
       1.242292537207e-01       1.994835302261e+03 
       1.284000775581e-01       1.901174093169e+03 
       1.327054756298e-01       1.803395289317e+03 
       1.371510876906e-01       1.705360415667e+03 
       1.417425703659e-01       1.611558628053e+03 
       1.464856049793e-01       1.525993595431e+03 
       1.513859064664e-01       1.451158947973e+03 
       1.564492341986e-01       1.387374459863e+03 
       1.616814055258e-01       1.332669823662e+03 
       1.670883128337e-01       1.283300651991e+03 
       1.726759449042e-01       1.234854890063e+03 
       1.784504133686e-01       1.183708303740e+03 
       1.844179850416e-01       1.128337024523e+03 
       1.905851209474e-01       1.069877102595e+03 
       1.969585228787e-01       1.011552388733e+03 
       2.035451883945e-01       9.571528643262e+02 
       2.103524752631e-01       9.092794701812e+02 
       2.173881765050e-01       8.682023517364e+02 
       2.246606074143e-01       8.318702459039e+02 
       2.321787062381e-01       7.970877423502e+02 
       2.399521506151e-01       7.613071236330e+02 
       2.479914924344e-01       7.240249323252e+02 
       2.563083145217e-01       6.868434618580e+02 
       2.649154135491e-01       6.521179384321e+02 
       2.738270148701e-01       6.211897189819e+02 
       2.830590267130e-01       5.935188248478e+02 
       2.926293434788e-01       5.673167980923e+02 
       3.025582109973e-01       5.411178238835e+02 
       3.128686708291e-01       5.149203364352e+02 
       3.235871065199e-01       4.898618019494e+02 
       3.347439228450e-01       4.668360436634e+02 
       3.463744005882e-01       4.455659330982e+02 
       3.585197859715e-01       4.250838080113e+02 
       3.712286981109e-01       4.049253821547e+02 
       3.845589740994e-01       3.854972649722e+02 
       3.985801265007e-01       3.672331812919e+02 
       4.133766740690e-01       3.498897827928e+02 
       4.290527440035e-01       3.330133173574e+02 
       4.457385700165e-01       3.166268934168e+02 
       4.635998935924e-01       3.009069866760e+02 
       4.828519484295e-01       2.856641937421e+02 
       5.037809365185e-01       2.707089666009e+02 
       5.267782507925e-01       2.560586020201e+02 
       5.523974154870e-01       2.415575121470e+02 
       5.814537587112e-01       2.270360195292e+02 
       6.152096513037e-01       2.123123241151e+02 
       6.557437306715e-01       1.970775660759e+02 
       7.067468983599e-01       1.808889143619e+02 
       7.753692732106e-01       1.630412952504e+02 
       8.765186847178e-01       1.425022009895e+02 
       1.039178051930e+00       1.185393956661e+02 
       1.290575926919e+00       9.366390494617e+01 
       1.623671038535e+00       7.224523007462e+01 
       2.044067075690e+00       5.463494979237e+01 
       2.573327953106e+00       4.024738112402e+01 
       3.239627953036e+00       2.872751808251e+01 
       4.078449954835e+00       1.981186578903e+01 
       5.134464288873e+00       1.320850241225e+01 
       6.463907569212e+00       8.542797492721e+00 
       8.137577498370e+00       5.385810614566e+00 
       1.024460310314e+01       3.326034764243e+00 
