# Matter power spectrum P(k) at redshift z=0
# for k=2.32511e-07 to 11.6696 h/Mpc,
# number of wavenumbers equal to 139
#    1:k (h/Mpc)              2:P (Mpc/h)^3        
       2.325109365254e-07       6.490409629674e-01 
       2.927139265119e-07       8.138082855286e-01 
       3.685050004719e-07       1.020403893185e+00 
       4.639203094673e-07       1.279446429140e+00 
       5.840410666358e-07       1.604250214257e+00 
       7.352641403192e-07       2.011509578909e+00 
       9.256427106288e-07       2.522156921107e+00 
       1.165315130653e-06       3.162438592828e+00 
       1.467044830727e-06       3.965263913050e+00 
       1.846900017643e-06       4.971896642826e+00 
       2.325109365254e-06       6.234075858926e+00 
       2.927139265119e-06       7.816675230146e+00 
       3.685050004719e-06       9.801037369461e+00 
       4.639203094673e-06       1.228915462264e+01 
       5.840410666358e-06       1.540891114077e+01 
       7.352641403192e-06       1.932065559693e+01 
       9.256427106288e-06       2.422544222496e+01 
       1.165315130653e-05       3.037536346477e+01 
       1.467044830727e-05       3.808650471018e+01 
       1.846900017643e-05       4.775518586415e+01 
       2.325109365254e-05       5.987832219381e+01 
       2.927139265119e-05       7.507894646044e+01 
       3.685050004719e-05       9.413819509059e+01 
       4.639203094673e-05       1.180353845363e+02 
       5.840410666358e-05       1.479982022128e+02 
       7.352641403192e-05       1.855655216211e+02 
       9.256427106288e-05       2.326659317626e+02 
       1.165315130653e-04       2.917157451197e+02 
       1.467044830727e-04       3.657409903157e+02 
       1.846900017643e-04       4.585286326594e+02 
       2.325109365254e-04       5.748128411014e+02 
       2.927139265119e-04       7.205022489148e+02 
       3.685050004719e-04       9.029534095338e+02 
       4.639203094673e-04       1.131293557262e+03 
       5.840410666358e-04       1.416792098295e+03 
       7.352641403192e-04       1.773274749994e+03 
       9.256427106288e-04       2.217563205524e+03 
       1.165315130653e-03       2.769890899187e+03 
       1.467044830727e-03       3.454175842849e+03 
       1.846900017643e-03       4.297973720156e+03 
       2.325109365254e-03       5.331891959271e+03 
       2.927139265119e-03       6.588030179591e+03 
       3.685050004719e-03       8.097025655868e+03 
       4.639203094673e-03       9.818589860739e+03 
       5.840410666358e-03       1.185740614442e+04 
       7.352641403192e-03       1.415004137921e+04 
       9.256427106288e-03       1.663153587321e+04 
       1.165315130653e-02       1.917444610869e+04 
       1.467044830727e-02       2.157163564671e+04 
       1.846900017087e-02       2.353429829421e+04 
       2.325108400908e-02       2.473363717660e+04 
       2.926878203071e-02       2.492586052210e+04 
       3.669563591226e-02       2.418302272545e+04 
       4.413924347738e-02       2.320291333134e+04 
       4.950847102580e-02       2.259269073850e+04 
       5.371519462038e-02       2.219567090780e+04 
       5.737029967820e-02       2.189318250854e+04 
       6.072704301686e-02       2.163121647198e+04 
       6.391086505325e-02       2.137999518771e+04 
       6.699350746441e-02       2.112102633999e+04 
       7.002046785744e-02       2.084261282736e+04 
       7.302293975204e-02       2.053816985136e+04 
       7.602367623826e-02       2.020555588472e+04 
       7.904014606506e-02       1.984671270176e+04 
       8.208635732446e-02       1.946728390951e+04 
       8.517397228793e-02       1.907603878806e+04 
       8.831302071185e-02       1.868402633784e+04 
       9.151237363426e-02       1.830345364359e+04 
       9.478006796684e-02       1.794633913260e+04 
       9.812353461672e-02       1.762303310482e+04 
       1.015497621838e-01       1.734072691273e+04 
       1.050654163922e-01       1.710209589105e+04 
       1.086769283339e-01       1.690425630558e+04 
       1.123905602513e-01       1.673826043878e+04 
       1.162124548431e-01       1.658940519600e+04 
       1.201486723125e-01       1.643863259229e+04 
       1.242052182194e-01       1.626518755986e+04 
       1.283880644335e-01       1.605040040476e+04 
       1.327031649766e-01       1.578198585394e+04 
       1.371564682013e-01       1.545775676870e+04 
       1.417539265318e-01       1.508741552722e+04 
       1.465015048426e-01       1.469137299266e+04 
       1.514051884608e-01       1.429637935873e+04 
       1.564709917146e-01       1.392881384061e+04 
       1.617049679161e-01       1.360731079690e+04 
       1.671132216436e-01       1.333672287577e+04 
       1.727019241709e-01       1.310533696543e+04 
       1.784773328833e-01       1.288690141977e+04 
       1.844458155137e-01       1.264815659816e+04 
       1.906138800302e-01       1.236062064223e+04 
       1.969882110149e-01       1.201254146350e+04 
       2.035757134000e-01       1.161503308062e+04 
       2.103835644662e-01       1.119798243343e+04 
       2.174192750933e-01       1.079654829301e+04 
       2.246907613672e-01       1.043458587858e+04 
       2.322064278356e-01       1.011329885043e+04 
       2.399752639594e-01       9.811192831456e+03 
       2.480069556654e-01       9.496467127074e+03 
       2.563120143966e-01       9.146265499921e+03 
       2.649019267035e-01       8.761104348054e+03 
       2.737893282873e-01       8.363579279842e+03 
       2.829882075478e-01       7.981353326659e+03 
       2.925141452019e-01       7.627230355566e+03 
       3.023845985480e-01       7.291719116768e+03 
       3.126192416382e-01       6.953787648267e+03 
       3.232403762510e-01       6.600733086196e+03 
       3.342734335089e-01       6.239067465112e+03 
       3.457475928369e-01       5.885879386338e+03 
       3.576965545604e-01       5.550522069561e+03 
       3.701595161119e-01       5.227023174208e+03 
       3.831824216062e-01       4.904766128566e+03 
       3.968195836933e-01       4.582942312157e+03 
       4.111358204066e-01       4.269904631540e+03 
       4.262093169443e-01       3.970230953480e+03 
       4.421355279396e-01       3.680076405009e+03 
       4.590326060669e-01       3.396494389026e+03 
       4.770491254336e-01       3.122670974208e+03 
       4.963753526048e-01       2.860803122031e+03 
       5.172601791080e-01       2.609190753253e+03 
       5.400374239502e-01       2.368076804129e+03 
       5.651683094260e-01       2.138770427727e+03 
       5.933132470172e-01       1.920808822668e+03 
       6.254598354215e-01       1.714592530832e+03 
       6.631659568713e-01       1.520163905214e+03 
       7.090565362805e-01       1.337464971735e+03 
       7.679225604614e-01       1.166081319136e+03 
       8.493106945760e-01       1.004486881254e+03 
       9.732415139922e-01       8.469471747626e+02 
       1.174274072455e+00       6.792147820250e+02 
       1.469375781247e+00       5.029979963317e+02 
       1.849511435246e+00       3.491114349329e+02 
       2.328394491378e+00       2.316166812515e+02 
       2.931274990818e+00       1.489872573639e+02 
       3.690256574897e+00       9.387729595861e+01 
       4.645757778178e+00       5.835507503408e+01 
       5.848662523989e+00       3.595452704624e+01 
       7.363029876458e+00       2.202554128817e+01 
       9.269505419272e+00       1.344208151027e+01 
       1.166961592709e+01       8.183413048703e+00 
