# Matter power spectrum P(k) at redshift z=1.5
# for k=2.35834e-07 to 11.8318 h/Mpc,
# number of wavenumbers equal to 139
#    1:k (h/Mpc)              2:P (Mpc/h)^3        
       2.358337711875e-07       1.658166816610e-01 
       2.968971275072e-07       2.064230636975e-01 
       3.737713385075e-07       2.569734286248e-01 
       4.705502362474e-07       3.199029304823e-01 
       5.923876499376e-07       3.982430611859e-01 
       7.457718661395e-07       4.957676860090e-01 
       9.388711536842e-07       6.171748412116e-01 
       1.181968753774e-06       7.683130511019e-01 
       1.488010500072e-06       9.564630672423e-01 
       1.873294231557e-06       1.190688601315e+00 
       2.358337711875e-06       1.482272946228e+00 
       2.968971275072e-06       1.845262517487e+00 
       3.737713385075e-06       2.297143495477e+00 
       4.705502362474e-06       2.859684159118e+00 
       5.923876499376e-06       3.559983473234e+00 
       7.457718661395e-06       4.431776421895e+00 
       9.388711536842e-06       5.517058919164e+00 
       1.181968753774e-05       6.868110475968e+00 
       1.488010500072e-05       8.550011879922e+00 
       1.873294231557e-05       1.064377878736e+01 
       2.358337711875e-05       1.325026145943e+01 
       2.968971275072e-05       1.649499704915e+01 
       3.737713385075e-05       2.053424533594e+01 
       4.705502362474e-05       2.556249304148e+01 
       5.923876499376e-05       3.182177715118e+01 
       7.457718661395e-05       3.961325456416e+01 
       9.388711536842e-05       4.931153260121e+01 
       1.181968753774e-04       6.138236673322e+01 
       1.488010500072e-04       7.640441426870e+01 
       1.873294231557e-04       9.509577401355e+01 
       2.358337711875e-04       1.183459799620e+02 
       2.968971275072e-04       1.472538361754e+02 
       3.737713385075e-04       1.831707888649e+02 
       4.705502362474e-04       2.277481625038e+02 
       5.923876499376e-04       2.829843027751e+02 
       7.457718661395e-04       3.512646089271e+02 
       9.388711536842e-04       4.353846239008e+02 
       1.181968753774e-03       5.385448398073e+02 
       1.488010500072e-03       6.643002604294e+02 
       1.873294231557e-03       8.164182984254e+02 
       2.358337711875e-03       9.985529238909e+02 
       2.968971275072e-03       1.213685160900e+03 
       3.737713385075e-03       1.463325042321e+03 
       4.705502362474e-03       1.746396476839e+03 
       5.923876499376e-03       2.057778019407e+03 
       7.457718661395e-03       2.386541206905e+03 
       9.388711536842e-03       2.714104831811e+03 
       1.181968753774e-02       3.012474550373e+03 
       1.488010500072e-02       3.243385628800e+03 
       1.873294231554e-02       3.360170554605e+03 
       2.358337690978e-02       3.316430086915e+03 
       2.968955792626e-02       3.087344011887e+03 
       3.735617193060e-02       2.704157521753e+03 
       4.637119124615e-02       2.294159968275e+03 
       5.393351901545e-02       2.038337932365e+03 
       5.942489769055e-02       1.898135730482e+03 
       6.395943420560e-02       1.801785059659e+03 
       6.801101185851e-02       1.724045273717e+03 
       7.179135277721e-02       1.654357538090e+03 
       7.541271299256e-02       1.587519766050e+03 
       7.894248538378e-02       1.520863797956e+03 
       8.242497908515e-02       1.453188412322e+03 
       8.589144463389e-02       1.384265238356e+03 
       8.936521143554e-02       1.314551046076e+03 
       9.286454497164e-02       1.244975000521e+03 
       9.640434095670e-02       1.176750842447e+03 
       9.999718276479e-02       1.111198451947e+03 
       1.036540296201e-01       1.049575379322e+03 
       1.073846801822e-01       9.929253916426e+02 
       1.111980938538e-01       9.419533150694e+02 
       1.151026187562e-01       8.969339166161e+02 
       1.191061565772e-01       8.576612715835e+02 
       1.232162835571e-01       8.234442233593e+02 
       1.274403402642e-01       7.931547706988e+02 
       1.317854987025e-01       7.653377574989e+02 
       1.362588126826e-01       7.383862281748e+02 
       1.408672556824e-01       7.107758482652e+02 
       1.456177493141e-01       6.813299348358e+02 
       1.505171847669e-01       6.494614052605e+02 
       1.555724391033e-01       6.153216650883e+02 
       1.607903879578e-01       5.797932667870e+02 
       1.661779159713e-01       5.443009581739e+02 
       1.717419261518e-01       5.104724514747e+02 
       1.774893492680e-01       4.797335364712e+02 
       1.834271543197e-01       4.529450912610e+02 
       1.895623611008e-01       4.301774370026e+02 
       1.959020558427e-01       4.106841590225e+02 
       2.024534109163e-01       3.931010043086e+02 
       2.092237095562e-01       3.758505206332e+02 
       2.162203765701e-01       3.576614884653e+02 
       2.234510159968e-01       3.380245204485e+02 
       2.309234566934e-01       3.173699305324e+02 
       2.386458068682e-01       2.968450830135e+02 
       2.466265186434e-01       2.777691910660e+02 
       2.548744638391e-01       2.610240914836e+02 
       2.633990223427e-01       2.466734705564e+02 
       2.722101846667e-01       2.339874864873e+02 
       2.813186706516e-01       2.218649753481e+02 
       2.907360667352e-01       2.094494967194e+02 
       3.004749848577e-01       1.965891566087e+02 
       3.105492469164e-01       1.838339825116e+02 
       3.209740998153e-01       1.719670933422e+02 
       3.317664676430e-01       1.614184327769e+02 
       3.429452494890e-01       1.519940274372e+02 
       3.545316740354e-01       1.431022793839e+02 
       3.665497255958e-01       1.342718009724e+02 
       3.790266610601e-01       1.255084723517e+02 
       3.919936437788e-01       1.171749050236e+02 
       4.054865295608e-01       1.095469591124e+02 
       4.195468528618e-01       1.025309854309e+02 
       4.342230797302e-01       9.582450377072e+01 
       4.495722210481e-01       8.928500534513e+01 
       4.656619396649e-01       8.303426427343e+01 
       4.825733457522e-01       7.720007360495e+01 
       5.004047688297e-01       7.170929154901e+01 
       5.192769444019e-01       6.642773286696e+01 
       5.393402970961e-01       6.135969998722e+01 
       5.607854125298e-01       5.655606798150e+01 
       5.838585042032e-01       5.196610686316e+01 
       6.088849728434e-01       4.753695890164e+01 
       6.363065938282e-01       4.327603663482e+01 
       6.667427056465e-01       3.914993480421e+01 
       7.010959233280e-01       3.512113900948e+01 
       7.407455912452e-01       3.116021513760e+01 
       7.879265265945e-01       2.721533702666e+01 
       8.465297941477e-01       2.322546742571e+01 
       9.239320496529e-01       1.910741439985e+01 
       1.035316302078e+00       1.477940417392e+01 
       1.211619590206e+00       1.031290205511e+01 
       1.491938839449e+00       6.351954693978e+00 
       1.875253818103e+00       3.692369243191e+00 
       2.360749101024e+00       2.118089730217e+00 
       2.972006832026e+00       1.204496128158e+00 
       3.741534924760e+00       6.796327293835e-01 
       4.710313395896e+00       3.807752276501e-01 
       5.929933231608e+00       2.119667312631e-01 
       7.465343635514e+00       1.173053039644e-01 
       9.398310810524e+00       6.457065863053e-02 
       1.183177230731e+01       3.536807078940e-02 
