# Matter power spectrum P(k) at redshift z=2.5
# for k=1.9844e-07 to 12.538 h/Mpc,
# number of wavenumbers equal to 140
#    1:k (h/Mpc)              2:P (Mpc/h)^3        
       1.984404819527e-07       2.106305426516e-01 
       2.498217654590e-07       2.621750421315e-01 
       3.145069689556e-07       3.263332649024e-01 
       3.959408154046e-07       4.061919811622e-01 
       4.984599540793e-07       5.055933404579e-01 
       6.275239029522e-07       6.293197244821e-01 
       7.900057879348e-07       7.833238363380e-01 
       9.945583618956e-07       9.750150954766e-01 
       1.252074795303e-06       1.213616117617e+00 
       1.576268777274e-06       1.510606430184e+00 
       1.984404819527e-06       1.880274771408e+00 
       2.498217654590e-06       2.340406538931e+00 
       3.145069689556e-06       2.913139468709e+00 
       3.959408154046e-06       3.626028697642e+00 
       4.984599540793e-06       4.513372443062e+00 
       6.275239029522e-06       5.617862062059e+00 
       7.900057879348e-06       6.992635826084e+00 
       9.945583618956e-06       8.703835137285e+00 
       1.252074795303e-05       1.083378600145e+01 
       1.576268777274e-05       1.348495846822e+01 
       1.984404819527e-05       1.678489387305e+01 
       2.498217654590e-05       2.089233559665e+01 
       3.145069689556e-05       2.600485566895e+01 
       3.959408154046e-05       3.236833898551e+01 
       4.984599540793e-05       4.028877118013e+01 
       6.275239029522e-05       5.014687723002e+01 
       7.900057879348e-05       6.241627550315e+01 
       9.945583618956e-05       7.768594306946e+01 
       1.252074795303e-04       9.668792128821e+01 
       1.576268777274e-04       1.203312989865e+02 
       1.984404819527e-04       1.497435369048e+02 
       2.498217654590e-04       1.863200312178e+02 
       3.145069689556e-04       2.317822595588e+02 
       3.959408154046e-04       2.882436036670e+02 
       4.984599540793e-04       3.582796246716e+02 
       6.275239029522e-04       4.449959981982e+02 
       7.900057879348e-04       5.520831220481e+02 
       9.945583618956e-04       6.838433217174e+02 
       1.252074795303e-03       8.451736080687e+02 
       1.576268777274e-03       1.041467399871e+03 
       1.984404819527e-03       1.278336593128e+03 
       2.498217654590e-03       1.561019534230e+03 
       3.145069689556e-03       1.893478460331e+03 
       3.959408154046e-03       2.277032574803e+03 
       4.984599540793e-03       2.705454505102e+03 
       6.275239029522e-03       3.172514508971e+03 
       7.900057879348e-03       3.654821054441e+03 
       9.945583618956e-03       4.116503524438e+03 
       1.252074795303e-02       4.504339956098e+03 
       1.576268777110e-02       4.749014274772e+03 
       1.984404451916e-02       4.777922345967e+03 
       2.498094257138e-02       4.549405111030e+03 
       3.136321032845e-02       4.110806772154e+03 
       3.806260968125e-02       3.674118296624e+03 
       4.298070110833e-02       3.417977168758e+03 
       4.676672647756e-02       3.255419173125e+03 
       5.002426091584e-02       3.131945962476e+03 
       5.299978325215e-02       3.026231309928e+03 
       5.581273187657e-02       2.928040244709e+03 
       5.853035477006e-02       2.831822978215e+03 
       6.119481367688e-02       2.734526123347e+03 
       6.383475983906e-02       2.634695074825e+03 
       6.647094224824e-02       2.532032753673e+03 
       6.911919521828e-02       2.427126648282e+03 
       7.179215076966e-02       2.321228825479e+03 
       7.450027865243e-02       2.216042873929e+03 
       7.725254826981e-02       2.113502743219e+03 
       8.005686643111e-02       2.015544114735e+03 
       8.292037617022e-02       1.923881899254e+03 
       8.584966613117e-02       1.839806952990e+03 
       8.885092046005e-02       1.764019986526e+03 
       9.193002795865e-02       1.696517631374e+03 
       9.509266262172e-02       1.636546188967e+03 
       9.834434361893e-02       1.582638416936e+03 
       1.016904802302e-01       1.532748491881e+03 
       1.051364056034e-01       1.484495801462e+03 
       1.086874021331e-01       1.435509224171e+03 
       1.123487205480e-01       1.383836707893e+03 
       1.161255943275e-01       1.328345127191e+03 
       1.200232507498e-01       1.269007867965e+03 
       1.240469196688e-01       1.206974141320e+03 
       1.282018409801e-01       1.144358136632e+03 
       1.324932716488e-01       1.083764711888e+03 
       1.369264931171e-01       1.027654383175e+03 
       1.415068198740e-01       9.777109706073e+02 
       1.462396099505e-01       9.343812801131e+02 
       1.511302780856e-01       8.967223297526e+02 
       1.561843123033e-01       8.626329338490e+02 
       1.614072946311e-01       8.294677416897e+02 
       1.668049266928e-01       7.949081357472e+02 
       1.723830609107e-01       7.578088218860e+02 
       1.781477380749e-01       7.186446482395e+02 
       1.841052320684e-01       6.792835110566e+02 
       1.902621026078e-01       6.421231932323e+02 
       1.966252569541e-01       6.089789449743e+02 
       2.032020217037e-01       5.802568809801e+02 
       2.100002259878e-01       5.548182158381e+02 
       2.170282977085e-01       5.306295146182e+02 
       2.242953748550e-01       5.059085882631e+02 
       2.318114344928e-01       4.801328681192e+02 
       2.395874427540e-01       4.542390311822e+02 
       2.476355301249e-01       4.298343439257e+02 
       2.559691976115e-01       4.079822341502e+02 
       2.646035610627e-01       3.884686904855e+02 
       2.735556432107e-01       3.700926594986e+02 
       2.828447260518e-01       3.517321624834e+02 
       2.924927803747e-01       3.332647330208e+02 
       3.025249950151e-01       3.154866265663e+02 
       3.129704364942e-01       2.991419420786e+02 
       3.238628811728e-01       2.841218933023e+02 
       3.352418786313e-01       2.696973900730e+02 
       3.471541293468e-01       2.554430475224e+02 
       3.596552962502e-01       2.416509554559e+02 
       3.728124256226e-01       2.287216222974e+02 
       3.867072403049e-01       2.165060712402e+02 
       4.014407088149e-01       2.046115994978e+02 
       4.171395264328e-01       1.930430499748e+02 
       4.339655410640e-01       1.819907856703e+02 
       4.521298584701e-01       1.713147124645e+02 
       4.719146541019e-01       1.608467765282e+02 
       4.937082116753e-01       1.506383264415e+02 
       5.180637742270e-01       1.405785469467e+02 
       5.458037148530e-01       1.305498928678e+02 
       5.782156889395e-01       1.204457375278e+02 
       6.174495533725e-01       1.100643531490e+02 
       6.673867612959e-01       9.913343126867e+01 
       7.356786330963e-01       8.724418661635e+01 
       8.383669149230e-01       7.390141011508e+01 
       1.004724958121e+00       5.922335828929e+01 
       1.254177849762e+00       4.555188889407e+01 
       1.578445287374e+00       3.478221982600e+01 
       1.987140486444e+00       2.637897483166e+01 
       2.501661648155e+00       1.971480353473e+01 
       3.149405420572e+00       1.442252031552e+01 
       3.964866516000e+00       1.027536668124e+01 
       4.991471211364e+00       7.104870126814e+00 
       6.283889950226e+00       4.760491653223e+00 
       7.910948743257e+00       3.094047585758e+00 
       9.959294404287e+00       1.957201123883e+00 
       1.253800880910e+01       1.210284266580e+00 
