# Matter power spectrum P(k) at redshift z=0.5
# for k=2.36491e-07 to 11.8648 h/Mpc,
# number of wavenumbers equal to 139
#    1:k (h/Mpc)              2:P (Mpc/h)^3        
       2.364912130759e-07       6.398907961400e-01 
       2.977247978073e-07       7.930779279942e-01 
       3.748133136809e-07       9.829374065853e-01 
       4.718620052717e-07       1.218248435217e+00 
       5.940390692967e-07       1.509891920626e+00 
       7.478508799362e-07       1.871353611501e+00 
       9.414884769843e-07       2.319347685731e+00 
       1.185263768587e-06       2.874589621244e+00 
       1.492158677953e-06       3.562754086828e+00 
       1.878516478104e-06       4.415662146409e+00 
       2.364912130759e-06       5.472752667134e+00 
       2.977247978073e-06       6.782905967022e+00 
       3.748133136809e-06       8.406704013847e+00 
       4.718620052717e-06       1.041923166316e+01 
       5.940390692967e-06       1.291354841624e+01 
       7.478508799362e-06       1.600499113714e+01 
       9.414884769843e-06       1.983650649909e+01 
       1.185263768587e-05       2.458525935574e+01 
       1.492158677953e-05       3.047082188023e+01 
       1.878516478104e-05       3.776532068859e+01 
       2.364912130759e-05       4.680600832080e+01 
       2.977247978073e-05       5.801083479983e+01 
       3.748133136809e-05       7.189772836781e+01 
       4.718620052717e-05       8.910845546476e+01 
       5.940390692967e-05       1.104381211558e+02 
       7.478508799362e-05       1.368715918443e+02 
       9.414884769843e-05       1.696283636724e+02 
       1.185263768587e-04       2.102176389430e+02 
       1.492158677953e-04       2.605055530319e+02 
       1.878516478104e-04       3.227965032528e+02 
       2.364912130759e-04       3.999301564508e+02 
       2.977247978073e-04       4.953945956716e+02 
       3.748133136809e-04       6.134536908351e+02 
       4.718620052717e-04       7.592826223663e+02 
       5.940390692967e-04       9.390995631698e+02 
       7.478508799362e-04       1.160275136413e+03 
       9.414884769843e-04       1.431395408612e+03 
       1.185263768587e-03       1.762238645661e+03 
       1.492158677953e-03       2.163567654370e+03 
       1.878516478104e-03       2.646552830815e+03 
       2.364912130759e-03       3.221686242343e+03 
       2.977247978073e-03       3.897062349691e+03 
       3.748133136809e-03       4.675803588939e+03 
       4.718620052717e-03       5.552643869243e+03 
       5.940390692967e-03       6.509509795945e+03 
       7.478508799362e-03       7.486011884583e+03 
       9.414884769843e-03       8.461506098935e+03 
       1.185263768587e-02       9.331698270334e+03 
       1.492158677953e-02       9.980063359263e+03 
       1.878516478101e-02       1.026821514662e+04 
       2.364912112120e-02       1.006354900695e+04 
       2.977233749004e-02       9.303472026111e+03 
       3.746159097969e-02       8.095274377765e+03 
       4.652790108820e-02       6.826738305657e+03 
       5.418181715869e-02       6.039007989938e+03 
       5.973085726043e-02       5.610633828392e+03 
       6.430518756057e-02       5.317940131101e+03 
       6.838863080441e-02       5.083077585951e+03 
       7.219670569334e-02       4.873880330498e+03 
       7.584341476688e-02       4.674668322525e+03 
       7.939708523235e-02       4.477465598270e+03 
       8.290258412978e-02       4.278690568718e+03 
       8.639152398471e-02       4.077625407760e+03 
       8.988748504101e-02       3.875531149584e+03 
       9.340891629190e-02       3.675003077244e+03 
       9.697085406231e-02       3.479413258745e+03 
       1.005859938942e-01       3.292392611230e+03 
       1.042653877275e-01       3.117350705961e+03 
       1.080189133076e-01       2.957054593387e+03 
       1.118555993958e-01       2.813288987326e+03 
       1.157838564347e-01       2.686619038980e+03 
       1.198116432983e-01       2.576270373661e+03 
       1.239465896480e-01       2.480139716692e+03 
       1.281960867108e-01       2.394951994549e+03 
       1.325673551327e-01       2.316583736718e+03 
       1.370674959041e-01       2.240561990801e+03 
       1.417035286398e-01       2.162716352736e+03 
       1.464824203590e-01       2.079902211571e+03 
       1.514111071639e-01       1.990644717127e+03 
       1.564965107098e-01       1.895510423867e+03 
       1.617455510335e-01       1.797039057672e+03 
       1.671651570809e-01       1.699178197064e+03 
       1.727622761369e-01       1.606325490456e+03 
       1.785438832706e-01       1.522225051021e+03 
       1.845169918488e-01       1.449015678052e+03 
       1.906886661380e-01       1.386679073063e+03 
       1.970660369931e-01       1.333035720495e+03 
       2.036563216135e-01       1.284335189799e+03 
       2.104668483397e-01       1.236371181001e+03 
       2.175050874582e-01       1.185864548586e+03 
       2.247786889845e-01       1.131630160238e+03 
       2.322955284100e-01       1.074965074568e+03 
       2.400637614369e-01       1.018967007587e+03 
       2.480918887888e-01       9.670458699334e+02 
       2.563888322958e-01       9.213501449090e+02 
       2.649640236214e-01       8.818634330844e+02 
       2.738275072443e-01       8.465748462927e+02 
       2.829900596515e-01       8.126388167990e+02 
       2.924633271777e-01       7.779562410274e+02 
       3.022599855640e-01       7.422728771918e+02 
       3.123939251605e-01       7.070586265886e+02 
       3.228804668316e-01       6.742496236051e+02 
       3.337366151101e-01       6.448033603921e+02 
       3.449813571311e-01       6.181283450057e+02 
       3.566360185048e-01       5.927396120741e+02 
       3.687246908314e-01       5.675418223608e+02 
       3.812747503517e-01       5.426193853576e+02 
       3.943174938141e-01       5.188489825569e+02 
       4.078889267882e-01       4.968219578058e+02 
       4.220307525667e-01       4.762502511556e+02 
       4.367916283029e-01       4.564189573318e+02 
       4.522287820059e-01       4.370298062085e+02 
       4.684101240792e-01       4.183644893878e+02 
       4.854170477969e-01       4.006676172286e+02 
       5.033482071706e-01       3.837348403094e+02 
       5.223247099827e-01       3.672641841991e+02 
       5.424974073336e-01       3.512556262189e+02 
       5.640573705448e-01       3.357766013427e+02 
       5.872513584408e-01       3.206775897014e+02 
       6.124053649441e-01       3.058145860166e+02 
       6.399617653355e-01       2.911435368489e+02 
       6.705403934675e-01       2.765190487084e+02 
       7.050439745206e-01       2.617663661517e+02 
       7.448508734363e-01       2.466748482319e+02 
       7.921920248999e-01       2.309154753706e+02 
       8.509468625798e-01       2.139973574089e+02 
       9.284595959133e-01       1.951199431101e+02 
       1.039831088385e+00       1.729941504891e+02 
       1.215896780424e+00       1.460801316770e+02 
       1.496243164517e+00       1.155156392140e+02 
       1.880496108929e+00       8.730487277366e+01 
       2.367344017733e+00       6.391019838214e+01 
       2.980309316760e+00       4.517702426665e+01 
       3.751987133757e+00       3.080158747403e+01 
       4.723471947412e+00       2.031086062786e+01 
       5.946498866493e+00       1.301845521379e+01 
       7.486198534234e+00       8.154843310313e+00 
       9.424565572483e+00       5.017048622656e+00 
       1.186482509432e+01       3.044282073650e+00 
