# Matter power spectrum P(k) at redshift z=0
# for k=2.35834e-07 to 11.8318 h/Mpc,
# number of wavenumbers equal to 139
#    1:k (h/Mpc)              2:P (Mpc/h)^3        
       2.358337711875e-07       7.561651395972e-01 
       2.968971275072e-07       9.413402994895e-01 
       3.737713385075e-07       1.171862484416e+00 
       4.705502362474e-07       1.458836599678e+00 
       5.923876499376e-07       1.816086999115e+00 
       7.457718661395e-07       2.260823442780e+00 
       9.388711536842e-07       2.814470138639e+00 
       1.181968753774e-06       3.503697804763e+00 
       1.488010500072e-06       4.361708468690e+00 
       1.873294231557e-06       5.429834893955e+00 
       2.358337711875e-06       6.759531677932e+00 
       2.968971275072e-06       8.414853929394e+00 
       3.737713385075e-06       1.047554291337e+01 
       4.705502362474e-06       1.304086727439e+01 
       5.923876499376e-06       1.623440481135e+01 
       7.457718661395e-06       2.020999502611e+01 
       9.388711536842e-06       2.515914893433e+01 
       1.181968753774e-05       3.132027257359e+01 
       1.488010500072e-05       3.899014752147e+01 
       1.873294231557e-05       4.853821945897e+01 
       2.358337711875e-05       6.042437915798e+01 
       2.968971275072e-05       7.522108465756e+01 
       3.737713385075e-05       9.364087496808e+01 
       4.705502362474e-05       1.165705704903e+02 
       5.923876499376e-05       1.451137482317e+02 
       7.457718661395e-05       1.806434212595e+02 
       9.388711536842e-05       2.248672316850e+02 
       1.181968753774e-04       2.799078526040e+02 
       1.488010500072e-04       3.484016114264e+02 
       1.873294231557e-04       4.336184399845e+02 
       2.358337711875e-04       5.396058415608e+02 
       2.968971275072e-04       6.713581801069e+02 
       3.737713385075e-04       8.350096386996e+02 
       4.705502362474e-04       1.038044200220e+03 
       5.923876499376e-04       1.289509277701e+03 
       7.457718661395e-04       1.600212032363e+03 
       9.388711536842e-04       1.982864461983e+03 
       1.181968753774e-03       2.452101305373e+03 
       1.488010500072e-03       3.024205058662e+03 
       1.873294231557e-03       3.716335725077e+03 
       2.358337711875e-03       4.545091437671e+03 
       2.968971275072e-03       5.524052265409e+03 
       3.737713385075e-03       6.660080610862e+03 
       4.705502362474e-03       7.948279404712e+03 
       5.923876499376e-03       9.365337181940e+03 
       7.457718661395e-03       1.080935022828e+04 
       9.388711536842e-03       1.227807594609e+04 
       1.181968753774e-02       1.360763859896e+04 
       1.488010500072e-02       1.462457774800e+04 
       1.873294231554e-02       1.511960795328e+04 
       2.358337690978e-02       1.488806865065e+04 
       2.968955792626e-02       1.382628789271e+04 
       3.735617193060e-02       1.208447048892e+04 
       4.637119124615e-02       1.024079268663e+04 
       5.393351901545e-02       9.101279651224e+03 
       5.942489769055e-02       8.482722302790e+03 
       6.395943420560e-02       8.061418653938e+03 
       6.801101185851e-02       7.724046606001e+03 
       7.179135277721e-02       7.423226664130e+03 
       7.541271299256e-02       7.135562654513e+03 
       7.894248538378e-02       6.848983822542e+03 
       8.242497908515e-02       6.557983273050e+03 
       8.589144463389e-02       6.261425626986e+03 
       8.936521143554e-02       5.961275939695e+03 
       9.286454497164e-02       5.661654970958e+03 
       9.640434095670e-02       5.367996124571e+03 
       9.999718276479e-02       5.086237161945e+03 
       1.036540296201e-01       4.822052203604e+03 
       1.073846801822e-01       4.580162788450e+03 
       1.111980938538e-01       4.363770963056e+03 
       1.151026187562e-01       4.174149555973e+03 
       1.191061565772e-01       4.010413641897e+03 
       1.232162835571e-01       3.869492768977e+03 
       1.274403402642e-01       3.746330134370e+03 
       1.317854987025e-01       3.634347813562e+03 
       1.362588126826e-01       3.526210430099e+03 
       1.408672556824e-01       3.414875358861e+03 
       1.456177493141e-01       3.294818220252e+03 
       1.505171847669e-01       3.163190598146e+03 
       1.555724391033e-01       3.020567250795e+03 
       1.607903879578e-01       2.870956993637e+03 
       1.661779159713e-01       2.720933032760e+03 
       1.717419261518e-01       2.578035165594e+03 
       1.774893492680e-01       2.448867333199e+03 
       1.834271543197e-01       2.337416036813e+03 
       1.895623611008e-01       2.244023515361e+03 
       1.959020558427e-01       2.165268733509e+03 
       2.024534109163e-01       2.094853486001e+03 
       2.092237095562e-01       2.025432886846e+03 
       2.162203765701e-01       1.951027644509e+03 
       2.234510159968e-01       1.869206551112e+03 
       2.309234566934e-01       1.781978828943e+03 
       2.386458068682e-01       1.694746955591e+03 
       2.466265186434e-01       1.613699561349e+03 
       2.548744638391e-01       1.542939154366e+03 
       2.633990223427e-01       1.482740905420e+03 
       2.722101846667e-01       1.429705069221e+03 
       2.813186706516e-01       1.378721474877e+03 
       2.907360667352e-01       1.325829671346e+03 
       3.004749848577e-01       1.270365815693e+03 
       3.105492469164e-01       1.214928546524e+03 
       3.209740998153e-01       1.163151815609e+03 
       3.317664676430e-01       1.116988484246e+03 
       3.429452494890e-01       1.075522950553e+03 
       3.545316740354e-01       1.036060968377e+03 
       3.665497255958e-01       9.964982075634e+02 
       3.790266610601e-01       9.569065763737e+02 
       3.919936437788e-01       9.189316354153e+02 
       4.054865295608e-01       8.837813891904e+02 
       4.195468528618e-01       8.510170503584e+02 
       4.342230797302e-01       8.193175448058e+02 
       4.495722210481e-01       7.880866236341e+02 
       4.656619396649e-01       7.578505360085e+02 
       4.825733457522e-01       7.291245161987e+02 
       5.004047688297e-01       7.015750775331e+02 
       5.192769444019e-01       6.746373390731e+02 
       5.393402970961e-01       6.483076602314e+02 
       5.607854125298e-01       6.227411746968e+02 
       5.838585042032e-01       5.976843943220e+02 
       6.088849728434e-01       5.728712351153e+02 
       6.363065938282e-01       5.482305146217e+02 
       6.667427056465e-01       5.235058547550e+02 
       7.010959233280e-01       4.983736199559e+02 
       7.407455912452e-01       4.724418762365e+02 
       7.879265265945e-01       4.450847851523e+02 
       8.465297941477e-01       4.153489433121e+02 
       9.239320496529e-01       3.816412543085e+02 
       1.035316302078e+00       3.412946252540e+02 
       1.211619590206e+00       2.907917804194e+02 
       1.491938839449e+00       2.313643148570e+02 
       1.875253818103e+00       1.745126583771e+02 
       2.360749101024e+00       1.263222053231e+02 
       2.972006832026e+00       8.783846268780e+01 
       3.741534924760e+00       5.892880447441e+01 
       4.710313395896e+00       3.838137493817e+01 
       5.929933231608e+00       2.442020869864e+01 
       7.465343635514e+00       1.526039830161e+01 
       9.398310810524e+00       9.407950367434e+00 
       1.183177230731e+01       5.741745343687e+00 
