# Matter power spectrum P(k) at redshift z=1
# for k=1.62296e-07 to 10.252 h/Mpc,
# number of wavenumbers equal to 140
#    1:k (h/Mpc)              2:P (Mpc/h)^3        
       1.622961352912e-07       9.226780754065e-01 
       2.043187289540e-07       1.154038242351e+00 
       2.572220399857e-07       1.443411629453e+00 
       3.238233626116e-07       1.805344965160e+00 
       4.076694601243e-07       2.258032547971e+00 
       5.132254429629e-07       2.824230867880e+00 
       6.461125521253e-07       3.532402567812e+00 
       8.134075107498e-07       4.418147249326e+00 
       1.024019385427e-06       5.525991047604e+00 
       1.289164026484e-06       6.911624932996e+00 
       1.622961352912e-06       8.644704249251e+00 
       2.043187289540e-06       1.081235020541e+01 
       2.572220399857e-06       1.352352930933e+01 
       3.238233626116e-06       1.691453083045e+01 
       4.076694601243e-06       2.115581752047e+01 
       5.132254429629e-06       2.646059372787e+01 
       6.461125521253e-06       3.309552112856e+01 
       8.134075107498e-06       4.139411979983e+01 
       1.024019385427e-05       5.177352633152e+01 
       1.289164026484e-05       6.475544766017e+01 
       1.622961352912e-05       8.099235632566e+01 
       2.043187289540e-05       1.013002290791e+02 
       2.572220399857e-05       1.266994448758e+02 
       3.238233626116e-05       1.584658395304e+02 
       4.076694601243e-05       1.981943673703e+02 
       5.132254429629e-05       2.478783409085e+02 
       6.461125521253e-05       3.100077800360e+02 
       8.134075107498e-05       3.876909276150e+02 
       1.024019385427e-04       4.848033077646e+02 
       1.289164026484e-04       6.061684676201e+02 
       1.622961352912e-04       7.577730918649e+02 
       2.043187289540e-04       9.470153722053e+02 
       2.572220399857e-04       1.182977658034e+03 
       3.238233626116e-04       1.476700708212e+03 
       4.076694601243e-04       1.841417280433e+03 
       5.132254429629e-04       2.292682836621e+03 
       6.461125521253e-04       2.848331441214e+03 
       8.134075107498e-04       3.528171654426e+03 
       1.024019385427e-03       4.353212926930e+03 
       1.289164026484e-03       5.343901160815e+03 
       1.622961352912e-03       6.516868985773e+03 
       2.043187289540e-03       7.880217610932e+03 
       2.572220399857e-03       9.427262669832e+03 
       3.238233626116e-03       1.112887251279e+04 
       4.076694601243e-03       1.292348713311e+04 
       5.132254429629e-03       1.470739664162e+04 
       6.461125521253e-03       1.632483739170e+04 
       8.134075107498e-03       1.756038572621e+04 
       1.024019385427e-02       1.813902953566e+04 
       1.289164026484e-02       1.775164460262e+04 
       1.622961348705e-02       1.614436354874e+04 
       2.043183030353e-02       1.331934341464e+04 
       2.571476733233e-02       9.807714635649e+03 
       3.207842231341e-02       6.769913125124e+03 
       3.778948370334e-02       5.283764084232e+03 
       4.188505545362e-02       4.749667687481e+03 
       4.520550411535e-02       4.518734299103e+03 
       4.814369977994e-02       4.395240488962e+03 
       5.086993207481e-02       4.303042742225e+03 
       5.347229878855e-02       4.204097537104e+03 
       5.600277027682e-02       4.077575002398e+03 
       5.849506995417e-02       3.913178987956e+03 
       6.097273694917e-02       3.708526999570e+03 
       6.345319438054e-02       3.467659870569e+03 
       6.594998506440e-02       3.199664887594e+03 
       6.847408468256e-02       2.917082403185e+03 
       7.103471517362e-02       2.634090341823e+03 
       7.363987079664e-02       2.364649283788e+03 
       7.629667067459e-02       2.120868495536e+03 
       7.901160209753e-02       1.911829565206e+03 
       8.179069254889e-02       1.742986591352e+03 
       8.463963374993e-02       1.616088482264e+03 
       8.756387250279e-02       1.529415044094e+03 
       9.056867799552e-02       1.478070737378e+03 
       9.365919206528e-02       1.454192080685e+03 
       9.684046690721e-02       1.447174740617e+03 
       1.001174934159e-01       1.444281362870e+03 
       1.034952224935e-01       1.432057181755e+03 
       1.069785810897e-01       1.398701585448e+03 
       1.105724843661e-01       1.336952370973e+03 
       1.142818451201e-01       1.246435159584e+03 
       1.181115814444e-01       1.134262261675e+03 
       1.220666234861e-01       1.013240340518e+03 
       1.261519201032e-01       8.981821487619e+02 
       1.303724461715e-01       8.018106589899e+02 
       1.347332112696e-01       7.318190452402e+02 
       1.392392704516e-01       6.897069871649e+02 
       1.438957378053e-01       6.709232218090e+02 
       1.487078034895e-01       6.657300296586e+02 
       1.536807549339e-01       6.611083364373e+02 
       1.588200028936e-01       6.444926537406e+02 
       1.641311130527e-01       6.087904731915e+02 
       1.696198439010e-01       5.559178130604e+02 
       1.752921916455e-01       4.958657328148e+02 
       1.811544429962e-01       4.413708665469e+02 
       1.872132367753e-01       4.017149591325e+02 
       1.934756354644e-01       3.791681833412e+02 
       1.999492080398e-01       3.687949636879e+02 
       2.066421257665e-01       3.609273564743e+02 
       2.135632730579e-01       3.460932689494e+02 
       2.207223760881e-01       3.207613976152e+02 
       2.281301526153e-01       2.894875592716e+02 
       2.357984874894e-01       2.609015497991e+02 
       2.437406396685e-01       2.410394373844e+02 
       2.519714883567e-01       2.295270458537e+02 
       2.605078282843e-01       2.206309052269e+02 
       2.693687274012e-01       2.081976323164e+02 
       2.785759647161e-01       1.910544509330e+02 
       2.881545721939e-01       1.734964052113e+02 
       2.981335133371e-01       1.600970293367e+02 
       3.085465435170e-01       1.509227706393e+02 
       3.194333152281e-01       1.421822269072e+02 
       3.308408182390e-01       1.312314473521e+02 
       3.428252851106e-01       1.197016459762e+02 
       3.554547550759e-01       1.103687596552e+02 
       3.688125881727e-01       1.028142951700e+02 
       3.830023821600e-01       9.474072387224e+01 
       3.981550135684e-01       8.624087671353e+01 
       4.144389893115e-01       7.891997450707e+01 
       4.320761307204e-01       7.220326330559e+01 
       4.513661777796e-01       6.520535451443e+01 
       4.727269818705e-01       5.875693493449e+01 
       4.967633578150e-01       5.253480081857e+01 
       5.243918244965e-01       4.637512974842e+01 
       5.570819832743e-01       4.037300679264e+01 
       5.973602808539e-01       3.435896771973e+01 
       6.499475330641e-01       2.823041516607e+01 
       7.244521989995e-01       2.188304887609e+01 
       8.407975070175e-01       1.537515853512e+01 
       1.028064488894e+00       9.489207916013e+00 
       1.290723600537e+00       5.454202672552e+00 
       1.624840357719e+00       3.091023514779e+00 
       2.045552408291e+00       1.739397837967e+00 
       2.575197907660e+00       9.726180428438e-01 
       3.241982086352e+00       5.407153583950e-01 
       4.081413633090e+00       2.990101380328e-01 
       5.138195338740e+00       1.645422888689e-01 
       6.468604682702e+00       9.013727877148e-02 
       8.143490813905e+00       4.917058485740e-02 
       1.025204752634e+01       2.671751488874e-02 
