# Matter power spectrum P(k) at redshift z=0.5
# for k=2.20891e-07 to 11.0845 h/Mpc,
# number of wavenumbers equal to 139
#    1:k (h/Mpc)              2:P (Mpc/h)^3        
       2.208913456093e-07       4.466611337362e-01 
       2.780857282329e-07       5.571192487026e-01 
       3.500891899297e-07       6.948933627149e-01 
       4.407361775970e-07       8.667386498227e-01 
       5.548539738739e-07       1.081080820501e+00 
       6.985197675448e-07       1.348429240815e+00 
       8.793842860027e-07       1.681892214504e+00 
       1.107079224381e-06       2.097819692792e+00 
       1.393730168443e-06       2.616604923859e+00 
       1.754602326237e-06       3.263684346977e+00 
       2.208913456093e-06       4.070784755224e+00 
       2.780857282329e-06       5.077478872952e+00 
       3.500891899297e-06       6.333125614212e+00 
       4.407361775970e-06       7.899290142698e+00 
       5.548539738739e-06       9.852762366170e+00 
       6.985197675448e-06       1.228932182183e+01 
       8.793842860027e-06       1.532843345930e+01 
       1.107079224381e-05       1.911910437720e+01 
       1.393730168443e-05       2.384718833340e+01 
       1.754602326237e-05       2.974449548068e+01 
       2.208913456093e-05       3.710015262219e+01 
       2.780857282329e-05       4.627476830879e+01 
       3.500891899297e-05       5.771809197816e+01 
       4.407361775970e-05       7.199102250495e+01 
       5.548539738739e-05       8.979302456000e+01 
       6.985197675448e-05       1.119962563047e+02 
       8.793842860027e-05       1.396880016049e+02 
       1.107079224381e-04       1.742233303753e+02 
       1.393730168443e-04       2.172902631705e+02 
       1.754602326237e-04       2.709900439371e+02 
       2.208913456093e-04       3.379353288149e+02 
       2.780857282329e-04       4.213689969021e+02 
       3.500891899297e-04       5.253055922627e+02 
       4.407361775970e-04       6.546957586111e+02 
       5.548539738739e-04       8.156112042372e+02 
       6.985197675448e-04       1.015443926852e+03 
       8.793842860027e-04       1.263108431740e+03 
       1.107079224381e-03       1.569223664906e+03 
       1.393730168443e-03       1.946214695142e+03 
       1.754602326237e-03       2.408185453506e+03 
       2.208913456093e-03       2.970542137381e+03 
       2.780857282329e-03       3.648980120267e+03 
       3.500891899297e-03       4.457699846614e+03 
       4.407361775970e-03       5.389864918912e+03 
       5.548539738739e-03       6.470949230766e+03 
       6.985197675448e-03       7.673621570540e+03 
       8.793842860027e-03       8.955594831743e+03 
       1.107079224381e-02       1.023635630112e+04 
       1.393730168443e-02       1.138435521766e+04 
       1.754602326182e-02       1.221177513847e+04 
       2.208913290520e-02       1.249724930209e+04 
       2.780786718444e-02       1.207011886270e+04 
       3.494805604144e-02       1.097869454409e+04 
       4.277604121776e-02       9.744624756324e+03 
       4.870013432491e-02       9.000252636303e+03 
       5.317248414560e-02       8.560054356445e+03 
       5.697632041890e-02       8.249373767694e+03 
       6.042906731169e-02       7.999609571061e+03 
       6.368080352668e-02       7.777408223408e+03 
       6.681454247324e-02       7.563727518254e+03 
       6.988166299089e-02       7.346925248952e+03 
       7.291673550865e-02       7.120094460112e+03 
       7.594459634914e-02       6.879904692273e+03 
       7.898407284684e-02       6.626000140744e+03 
       8.205009923075e-02       6.360563103126e+03 
       8.515499244716e-02       6.087862700465e+03 
       8.830925938954e-02       5.813710192932e+03 
       9.152212816487e-02       5.544807633374e+03 
       9.480190929438e-02       5.288017891076e+03 
       9.815624797638e-02       5.049612232296e+03 
       1.015923041888e-01       4.834560196808e+03 
       1.051168835661e-01       4.645921846192e+03 
       1.087365338125e-01       4.484391397775e+03 
       1.124576164305e-01       4.348033581337e+03 
       1.162863604238e-01       4.232262228178e+03 
       1.202289026322e-01       4.130132554309e+03 
       1.242913180536e-01       4.033032740837e+03 
       1.284796426466e-01       3.931835551102e+03 
       1.327998905345e-01       3.818464781390e+03 
       1.372580671516e-01       3.687641712208e+03 
       1.418601796163e-01       3.538363579447e+03 
       1.466122454540e-01       3.374559788174e+03 
       1.515203006834e-01       3.204506687465e+03 
       1.565904082120e-01       3.038971664567e+03 
       1.618286674450e-01       2.888536854795e+03 
       1.672412259862e-01       2.760850864289e+03 
       1.728342942907e-01       2.658535292491e+03 
       1.786141641189e-01       2.578248035697e+03 
       1.845872316338e-01       2.511225949007e+03 
       1.907600259810e-01       2.445532678952e+03 
       1.971392441963e-01       2.369894511311e+03 
       2.037317933057e-01       2.278108275079e+03 
       2.105448405187e-01       2.171969800335e+03 
       2.175858724863e-01       2.060714564189e+03 
       2.248627647062e-01       1.956749466047e+03 
       2.323838623181e-01       1.869781803503e+03 
       2.401580737777e-01       1.802309084657e+03 
       2.481949792247e-01       1.748506416769e+03 
       2.565049558178e-01       1.697174742365e+03 
       2.650993229182e-01       1.637962388100e+03 
       2.739905108135e-01       1.567776247532e+03 
       2.831922577464e-01       1.492676959427e+03 
       2.927198414287e-01       1.423113878056e+03 
       3.025903531031e-01       1.366012519034e+03 
       3.128230247252e-01       1.319851606458e+03 
       3.234396232170e-01       1.276357867954e+03 
       3.344649303461e-01       1.227805725600e+03 
       3.459273331194e-01       1.173983460510e+03 
       3.578595584373e-01       1.121653767393e+03 
       3.702995983008e-01       1.076707665289e+03 
       3.832918899512e-01       1.037799241388e+03 
       3.968888418334e-01       9.986664079469e+02 
       4.111528359014e-01       9.564002590154e+02 
       4.261588972405e-01       9.147465552198e+02 
       4.419983163647e-01       8.775091866128e+02 
       4.587836606347e-01       8.425292159875e+02 
       4.766558600051e-01       8.061913951899e+02 
       4.957944749049e-01       7.699726761137e+02 
       5.164329977001e-01       7.360859363962e+02 
       5.388824009118e-01       7.023268688494e+02 
       5.635687540071e-01       6.679891554806e+02 
       5.910959912576e-01       6.343719442703e+02 
       6.223561583529e-01       5.998931092938e+02 
       6.587351224522e-01       5.645980522010e+02 
       7.025244939345e-01       5.274120089815e+02 
       7.578140412445e-01       4.872655492214e+02 
       8.325695492322e-01       4.420441520837e+02 
       9.434374780050e-01       3.886139367821e+02 
       1.122242530581e+00       3.242408419050e+02 
       1.396180592270e+00       2.549184558020e+02 
       1.756775705069e+00       1.923232064000e+02 
       2.211638989093e+00       1.391655307535e+02 
       2.784288503040e+00       9.632800164926e+01 
       3.505211550237e+00       6.408370352787e+01 
       4.412799894308e+00       4.129373359282e+01 
       5.555385924107e+00       2.596788123732e+01 
       6.993816512182e+00       1.603818875380e+01 
       8.804693332612e+00       9.776651208402e+00 
       1.108445217948e+01       5.903998702464e+00 
