# Matter power spectrum P(k) at redshift z=1.5
# for k=2.36491e-07 to 11.8648 h/Mpc,
# number of wavenumbers equal to 139
#    1:k (h/Mpc)              2:P (Mpc/h)^3        
       2.364912130759e-07       2.537572562570e-01 
       2.977247978073e-07       3.145056628604e-01 
       3.748133136809e-07       3.897969792002e-01 
       4.718620052717e-07       4.831127158561e-01 
       5.940390692967e-07       5.987678420082e-01 
       7.478508799362e-07       7.421103118085e-01 
       9.414884769843e-07       9.197683562464e-01 
       1.185263768587e-06       1.139956975607e+00 
       1.492158677953e-06       1.412857803759e+00 
       1.878516478104e-06       1.751089910909e+00 
       2.364912130759e-06       2.170293309894e+00 
       2.977247978073e-06       2.689852149629e+00 
       3.748133136809e-06       3.333791029645e+00 
       4.718620052717e-06       4.131885873193e+00 
       5.940390692967e-06       5.121040708060e+00 
       7.478508799362e-06       6.346993984153e+00 
       9.414884769843e-06       7.866433262312e+00 
       1.185263768587e-05       9.749615919650e+00 
       1.492158677953e-05       1.208361679780e+01 
       1.878516478104e-05       1.497635244312e+01 
       2.364912130759e-05       1.856156701661e+01 
       2.977247978073e-05       2.300500841843e+01 
       3.748133136809e-05       2.851207631866e+01 
       4.718620052717e-05       3.533728805765e+01 
       5.940390692967e-05       4.379598506145e+01 
       7.478508799362e-05       5.427879166498e+01 
       9.414884769843e-05       6.726943714469e+01 
       1.185263768587e-04       8.336665270617e+01 
       1.492158677953e-04       1.033109372524e+02 
       1.878516478104e-04       1.280170076805e+02 
       2.364912130759e-04       1.586126276324e+02 
       2.977247978073e-04       1.964840935470e+02 
       3.748133136809e-04       2.433277026261e+02 
       4.718620052717e-04       3.012046995617e+02 
       5.940390692967e-04       3.725942227737e+02 
       7.478508799362e-04       4.604348926841e+02 
       9.414884769843e-04       5.681423223495e+02 
       1.185263768587e-03       6.995884007664e+02 
       1.492158677953e-03       8.590215501982e+02 
       1.878516478104e-03       1.050869663561e+03 
       2.364912130759e-03       1.279310417862e+03 
       2.977247978073e-03       1.547553615928e+03 
       3.748133136809e-03       1.856842287516e+03 
       4.718620052717e-03       2.205084732747e+03 
       5.940390692967e-03       2.585104185878e+03 
       7.478508799362e-03       2.978899372846e+03 
       9.414884769843e-03       3.368815636058e+03 
       1.185263768587e-02       3.717641219192e+03 
       1.492158677953e-02       3.979055650896e+03 
       1.878516478101e-02       4.097813338808e+03 
       2.364912112120e-02       4.020603462921e+03 
       2.977233749004e-02       3.721579187537e+03 
       3.746159097969e-02       3.242404791873e+03 
       4.652790108820e-02       2.737052492285e+03 
       5.418181715869e-02       2.422160841607e+03 
       5.973085726043e-02       2.250394809917e+03 
       6.430518756057e-02       2.132694537904e+03 
       6.838863080441e-02       2.037995535509e+03 
       7.219670569334e-02       1.953450527579e+03 
       7.584341476688e-02       1.872796003858e+03 
       7.939708523235e-02       1.792849660034e+03 
       8.290258412978e-02       1.712188736181e+03 
       8.639152398471e-02       1.630538002998e+03 
       8.988748504101e-02       1.548415151509e+03 
       9.340891629190e-02       1.466872407849e+03 
       9.697085406231e-02       1.387273117648e+03 
       1.005859938942e-01       1.311084178962e+03 
       1.042653877275e-01       1.239683655781e+03 
       1.080189133076e-01       1.174191428049e+03 
       1.118555993958e-01       1.115332085794e+03 
       1.157838564347e-01       1.063338549416e+03 
       1.198116432983e-01       1.017902918115e+03 
       1.239465896480e-01       9.781804045737e+02 
       1.281960867108e-01       9.428533069847e+02 
       1.325673551327e-01       9.102631650588e+02 
       1.370674959041e-01       8.786138357133e+02 
       1.417035286398e-01       8.462352946379e+02 
       1.464824203590e-01       8.118737060499e+02 
       1.514111071639e-01       7.749470413051e+02 
       1.564965107098e-01       7.356903738438e+02 
       1.617455510335e-01       6.951260781157e+02 
       1.671651570809e-01       6.548379684772e+02 
       1.727622761369e-01       6.165901256756e+02 
       1.785438832706e-01       5.818865231335e+02 
       1.845169918488e-01       5.515885289537e+02 
       1.906886661380e-01       5.256909061432e+02 
       1.970660369931e-01       5.033188551842e+02 
       2.036563216135e-01       4.829670705145e+02 
       2.104668483397e-01       4.629506596967e+02 
       2.175050874582e-01       4.419600497273e+02 
       2.247786889845e-01       4.195241937234e+02 
       2.322955284100e-01       3.961619198764e+02 
       2.400637614369e-01       3.731106374674e+02 
       2.480918887888e-01       3.517354853819e+02 
       2.563888322958e-01       3.329004563957e+02 
       2.649640236214e-01       3.166022371863e+02 
       2.738275072443e-01       3.020348239185e+02 
       2.829900596515e-01       2.880550420552e+02 
       2.924633271777e-01       2.738181082648e+02 
       3.022599855640e-01       2.592184932360e+02 
       3.123939251605e-01       2.448438115146e+02 
       3.228804668316e-01       2.314735021963e+02 
       3.337366151101e-01       2.194969705617e+02 
       3.449813571311e-01       2.086780248641e+02 
       3.566360185048e-01       1.984153728353e+02 
       3.687246908314e-01       1.882619439482e+02 
       3.812747503517e-01       1.782487390475e+02 
       3.943174938141e-01       1.687323338762e+02 
       4.078889267882e-01       1.599570632839e+02 
       4.220307525667e-01       1.518074931139e+02 
       4.367916283029e-01       1.439895202299e+02 
       4.522287820059e-01       1.363786660052e+02 
       4.684101240792e-01       1.290924500443e+02 
       4.854170477969e-01       1.222361967437e+02 
       5.033482071706e-01       1.157275688184e+02 
       5.223247099827e-01       1.094413226960e+02 
       5.424974073336e-01       1.033808003818e+02 
       5.640573705448e-01       9.758089618640e+01 
       5.872513584408e-01       9.198427736444e+01 
       6.124053649441e-01       8.653698038785e+01 
       6.399617653355e-01       8.123261313185e+01 
       6.705403934675e-01       7.602448018021e+01 
       7.050439745206e-01       7.085982275526e+01 
       7.448508734363e-01       6.568235710916e+01 
       7.921920248999e-01       6.040316789178e+01 
       8.509468625798e-01       5.489913432368e+01 
       9.284595959133e-01       4.898099454530e+01 
       1.039831088385e+00       4.237787553895e+01 
       1.215896780424e+00       3.487519193666e+01 
       1.496243164517e+00       2.707562869293e+01 
       1.880496108929e+00       2.049029557133e+01 
       2.367344017733e+00       1.535487298651e+01 
       2.980309316760e+00       1.133172322131e+01 
       3.751987133757e+00       8.186665427084e+00 
       4.723471947412e+00       5.764528180907e+00 
       5.946498866493e+00       3.944627706744e+00 
       7.486198534234e+00       2.619954928808e+00 
       9.424565572483e+00       1.690554927940e+00 
       1.186482509432e+01       1.063021895855e+00 
