# Matter power spectrum P(k) at redshift z=0
# for k=2.15236e-07 to 10.8016 h/Mpc,
# number of wavenumbers equal to 139
#    1:k (h/Mpc)              2:P (Mpc/h)^3        
       2.152362358710e-07       9.415266319341e-01 
       2.709663668769e-07       1.173066435228e+00 
       3.411264450029e-07       1.461546401411e+00 
       4.294527502491e-07       1.820969228789e+00 
       5.406489804535e-07       2.268781151895e+00 
       6.806367403535e-07       2.826718773541e+00 
       8.568708886318e-07       3.521864148538e+00 
       1.078736536325e-06       4.387959331350e+00 
       1.358048838211e-06       5.467044193250e+00 
       1.709682192881e-06       6.811497004152e+00 
       2.152362358710e-06       8.486576820140e+00 
       2.709663668769e-06       1.057359106711e+01 
       3.411264450029e-06       1.317384204499e+01 
       4.294527502491e-06       1.641354385021e+01 
       5.406489804535e-06       2.044994826572e+01 
       6.806367403535e-06       2.547897672859e+01 
       8.568708886318e-06       3.174472836229e+01 
       1.078736536325e-05       3.955132466886e+01 
       1.358048838211e-05       4.927766399963e+01 
       1.709682192881e-05       6.139579839209e+01 
       2.152362358710e-05       7.649381770175e+01 
       2.709663668769e-05       9.530433783188e+01 
       3.411264450029e-05       1.187399483393e+02 
       4.294527502491e-05       1.479372857228e+02 
       5.406489804535e-05       1.843117648720e+02 
       6.806367403535e-05       2.296254154663e+02 
       8.568708886318e-05       2.860707051810e+02 
       1.078736536325e-04       3.563736178290e+02 
       1.358048838211e-04       4.439194420008e+02 
       1.709682192881e-04       5.529044204909e+02 
       2.152362358710e-04       6.885150885842e+02 
       2.709663668769e-04       8.571339667672e+02 
       3.411264450029e-04       1.066564256941e+03 
       4.294527502491e-04       1.326256747512e+03 
       5.406489804535e-04       1.647510495530e+03 
       6.806367403535e-04       2.043607968909e+03 
       8.568708886318e-04       2.529828867784e+03 
       1.078736536325e-03       3.123222666582e+03 
       1.358048838211e-03       3.841875333811e+03 
       1.709682192881e-03       4.703377099413e+03 
       2.152362358710e-03       5.722325119871e+03 
       2.709663668769e-03       6.906478096498e+03 
       3.411264450029e-03       8.251551351839e+03 
       4.294527502491e-03       9.734981237300e+03 
       5.406489804535e-03       1.130858637270e+04 
       6.806367403535e-03       1.285814868472e+04 
       8.568708886318e-03       1.431763796424e+04 
       1.078736536325e-02       1.550295149163e+04 
       1.358048838211e-02       1.621594605928e+04 
       1.709682192881e-02       1.623934682788e+04 
       2.152362356689e-02       1.538791495289e+04 
       2.709661029198e-02       1.361800917437e+04 
       3.410697016885e-02       1.118702405165e+04 
       4.266801330307e-02       8.770568073091e+03 
       5.078085898796e-02       7.279220573837e+03 
       5.658672583432e-02       6.593029902223e+03 
       6.121977367274e-02       6.187685084441e+03 
       6.528520214856e-02       5.887276155378e+03 
       6.903942905232e-02       5.626992560079e+03 
       7.261242538630e-02       5.377598152848e+03 
       7.607975545292e-02       5.125212649318e+03 
       7.948992536020e-02       4.864306155947e+03 
       8.287650670423e-02       4.594622779597e+03 
       8.626417634019e-02       4.319437448413e+03 
       8.967200310771e-02       4.044286053790e+03 
       9.311536344340e-02       3.775874428112e+03 
       9.660712055595e-02       3.521092640437e+03 
       1.001583831799e-01       3.286150486466e+03 
       1.037790119193e-01       3.075878960122e+03 
       1.074779674790e-01       2.893233032959e+03 
       1.112635561779e-01       2.739005552519e+03 
       1.151436065768e-01       2.611738935058e+03 
       1.191255986017e-01       2.507817020652e+03 
       1.232167590868e-01       2.421740377413e+03 
       1.274241330670e-01       2.346619826527e+03 
       1.317546372413e-01       2.274937088279e+03 
       1.362151001504e-01       2.199578145693e+03 
       1.408122923827e-01       2.115035733568e+03 
       1.455529493047e-01       2.018530032021e+03 
       1.504437882717e-01       1.910693452196e+03 
       1.554915219095e-01       1.795498193310e+03 
       1.607028688222e-01       1.679314508457e+03 
       1.660845629238e-01       1.569303713679e+03 
       1.716433624929e-01       1.471609615505e+03 
       1.773860599857e-01       1.389865620087e+03 
       1.833194936055e-01       1.324376850303e+03 
       1.894505616002e-01       1.272115241402e+03 
       1.957862402448e-01       1.227534553933e+03 
       2.023336064539e-01       1.184139997150e+03 
       2.090998659640e-01       1.136545395476e+03 
       2.160923880243e-01       1.082364333255e+03 
       2.233187475482e-01       1.023026467511e+03 
       2.307867757043e-01       9.629373500492e+02 
       2.385046199820e-01       9.072971398991e+02 
       2.464808148611e-01       8.596930525287e+02 
       2.547243643587e-01       8.206353209107e+02 
       2.632448379439e-01       7.876181104089e+02 
       2.720524816166e-01       7.566046431431e+02 
       2.811583463682e-01       7.242540352607e+02 
       2.905744368173e-01       6.896955823503e+02 
       3.003138835762e-01       6.546810150874e+02 
       3.103911439193e-01       6.219918025731e+02 
       3.208222366675e-01       5.933360744252e+02 
       3.316250189740e-01       5.682945709299e+02 
       3.428195150620e-01       5.449587325094e+02 
       3.544283101206e-01       5.216264522838e+02 
       3.664770268431e-01       4.981021845176e+02 
       3.789949079326e-01       4.754720554202e+02 
       3.920155359976e-01       4.547194320224e+02 
       4.055777336331e-01       4.357117182576e+02 
       4.197267027080e-01       4.175500567702e+02 
       4.345154854268e-01       3.996888525971e+02 
       4.500068645086e-01       3.823955702017e+02 
       4.662758722303e-01       3.660843754367e+02 
       4.834131587549e-01       3.506273374300e+02 
       5.015295973505e-01       3.356262640193e+02 
       5.207627099621e-01       3.210152010582e+02 
       5.412858396897e-01       3.069292698524e+02 
       5.633215876341e-01       2.932613909542e+02 
       5.871620876147e-01       2.798261546095e+02 
       6.132006602651e-01       2.665946255914e+02 
       6.419832340734e-01       2.534627524467e+02 
       6.742958548933e-01       2.402598559529e+02 
       7.113220039907e-01       2.268241231267e+02 
       7.549442651347e-01       2.128845081419e+02 
       8.083675256139e-01       1.980569381840e+02 
       8.775126548951e-01       1.817214569036e+02 
       9.743124204992e-01       1.628730791759e+02 
       1.123702189381e+00       1.401368002089e+02 
       1.365511782278e+00       1.134891889045e+02 
       1.712092625456e+00       8.764448043686e+01 
       2.155193588515e+00       6.597049688642e+01 
       2.713226750774e+00       4.835466408147e+01 
       3.415750103355e+00       3.439611257940e+01 
       4.300174605453e+00       2.371818736362e+01 
       5.413599085956e+00       1.587916922330e+01 
       6.815317458576e+00       1.035538444570e+01 
       8.579976338046e+00       6.603675503579e+00 
       1.080155024456e+01       4.134197130886e+00 
