# Matter power spectrum P(k) at redshift z=1
# for k=2.3577e-07 to 11.8303 h/Mpc,
# number of wavenumbers equal to 139
#    1:k (h/Mpc)              2:P (Mpc/h)^3        
       2.357702587997e-07       3.729901553692e-01 
       2.968171701483e-07       4.640741404799e-01 
       3.736706781565e-07       5.774007830313e-01 
       4.704235123736e-07       7.184017270868e-01 
       5.922281140326e-07       8.938350209357e-01 
       7.455710223346e-07       1.112109023960e+00 
       9.386183063143e-07       1.383685410871e+00 
       1.181650437794e-06       1.721580589311e+00 
       1.487609763997e-06       2.141989562037e+00 
       1.872789734729e-06       2.665062134542e+00 
       2.357702587997e-06       3.315868666493e+00 
       2.968171701483e-06       4.125601652926e+00 
       3.736706781565e-06       5.133070714649e+00 
       4.704235123736e-06       6.386562634541e+00 
       5.922281140326e-06       7.946155551805e+00 
       7.455710223346e-06       9.886598164064e+00 
       9.386183063143e-06       1.230089179249e+01 
       1.181650437794e-05       1.530474672795e+01 
       1.487609763997e-05       1.904212589168e+01 
       1.872789734729e-05       2.369214047079e+01 
       2.357702587997e-05       2.947762591154e+01 
       2.968171701483e-05       3.667580518435e+01 
       3.736706781565e-05       4.563154224621e+01 
       4.704235123736e-05       5.677380488285e+01 
       5.922281140326e-05       7.063609438091e+01 
       7.455710223346e-05       8.788175917540e+01 
       9.386183063143e-05       1.093352838946e+02 
       1.181650437794e-04       1.360208154617e+02 
       1.487609763997e-04       1.692093093503e+02 
       1.872789734729e-04       2.104756611769e+02 
       2.357702587997e-04       2.617668559080e+02 
       2.968171701483e-04       3.254812117261e+02 
       3.736706781565e-04       4.045567405769e+02 
       4.704235123736e-04       5.025629205549e+02 
       5.922281140326e-04       6.237845276910e+02 
       7.455710223346e-04       7.732796653724e+02 
       9.386183063143e-04       9.568896180547e+02 
       1.181650437794e-03       1.181174472862e+03 
       1.487609763997e-03       1.453221183824e+03 
       1.872789734729e-03       1.780184920741e+03 
       2.357702587997e-03       2.168395448887e+03 
       2.968171701483e-03       2.622030143592e+03 
       3.736706781565e-03       3.141269857095e+03 
       4.704235123736e-03       3.719951869517e+03 
       5.922281140326e-03       4.342856377144e+03 
       7.455710223346e-03       4.982995186413e+03 
       9.386183063143e-03       5.599555915186e+03 
       1.181650437794e-02       6.137076924794e+03 
       1.487609763997e-02       6.527099052304e+03 
       1.872789734728e-02       6.694445957242e+03 
       2.357702582303e-02       6.572486654571e+03 
       2.968165832117e-02       6.132893305929e+03 
       3.735666994347e-02       5.427559160988e+03 
       4.661203023983e-02       4.633785702391e+03 
       5.495040557723e-02       4.064418205210e+03 
       6.092767862146e-02       3.732438886249e+03 
       6.576846131820e-02       3.495567100449e+03 
       7.004952351404e-02       3.301464571972e+03 
       7.402045180043e-02       3.129727556172e+03 
       7.781018491979e-02       2.971012126735e+03 
       8.149470933979e-02       2.820804013707e+03 
       8.512329541407e-02       2.677073448187e+03 
       8.873031379099e-02       2.539191455621e+03 
       9.234119248108e-02       2.407328591727e+03 
       9.597568830841e-02       2.282064032053e+03 
       9.964980739905e-02       2.164101042286e+03 
       1.033769942355e-01       2.054049330446e+03 
       1.071689004082e-01       1.952260960458e+03 
       1.110358996454e-01       1.858717654898e+03 
       1.149874431677e-01       1.772972439637e+03 
       1.190323108897e-01       1.694149395686e+03 
       1.231787925274e-01       1.621004358846e+03 
       1.274348202142e-01       1.552046557723e+03 
       1.318080667461e-01       1.485714280237e+03 
       1.363060189482e-01       1.420586266992e+03 
       1.409360327129e-01       1.355597492279e+03 
       1.457053743674e-01       1.290215430346e+03 
       1.506212517733e-01       1.224529701921e+03 
       1.556908377386e-01       1.159218224264e+03 
       1.609212877689e-01       1.095380445080e+03 
       1.663197538168e-01       1.034264560800e+03 
       1.718933954498e-01       9.769503642069e+02 
       1.776493896969e-01       9.240683603681e+02 
       1.835949407349e-01       8.756328423870e+02 
       1.897372905127e-01       8.310420145924e+02 
       1.960837313716e-01       7.892572269408e+02 
       2.026416216955e-01       7.491215731963e+02 
       2.094184056080e-01       7.097239687843e+02 
       2.164216377232e-01       6.706794976482e+02 
       2.236590139495e-01       6.322081342962e+02 
       2.311384093495e-01       5.949684112351e+02 
       2.388679240709e-01       5.597143263227e+02 
       2.468559383972e-01       5.269337852101e+02 
       2.551111780318e-01       4.966391652685e+02 
       2.636427908320e-01       4.684053150544e+02 
       2.724604363741e-01       4.416236489360e+02 
       2.815743899717e-01       4.158249316888e+02 
       2.909956631053e-01       3.908827309693e+02 
       3.007361426935e-01       3.669837851049e+02 
       3.108087522647e-01       3.444070861732e+02 
       3.212276389324e-01       3.232825740885e+02 
       3.320083911976e-01       3.035006192326e+02 
       3.431682940751e-01       2.848147431038e+02 
       3.547266300004e-01       2.670262846905e+02 
       3.667050365754e-01       2.500872305859e+02 
       3.791279357014e-01       2.340500368849e+02 
       3.920230533710e-01       2.189427088085e+02 
       4.054220558628e-01       2.047046819225e+02 
       4.193613370558e-01       1.912320024420e+02 
       4.338830042199e-01       1.784551302131e+02 
       4.490361276954e-01       1.663538074092e+02 
       4.648783461357e-01       1.549103477997e+02 
       4.814779578658e-01       1.440788596581e+02 
       4.989166876340e-01       1.338055517123e+02 
       5.172934086884e-01       1.240536850693e+02 
       5.367292434633e-01       1.147940442293e+02 
       5.573746989586e-01       1.059886303359e+02 
       5.794198823456e-01       9.759666455493e+01 
       6.031095159069e-01       8.958168396676e+01 
       6.287656799303e-01       8.190504113345e+01 
       6.568234783268e-01       7.452411339757e+01 
       6.878892777038e-01       6.739251955227e+01 
       7.228404268387e-01       6.045873967467e+01 
       7.630058205287e-01       5.366092274499e+01 
       8.105150724718e-01       4.692339599311e+01 
       8.690267211754e-01       4.014695499036e+01 
       9.453714542752e-01       3.320024828546e+01 
       1.053442705449e+00       2.593879900186e+01 
       1.222069063370e+00       1.840831089179e+01 
       1.493626392900e+00       1.149476664863e+01 
       1.875080419824e+00       6.677093724073e+00 
       2.360458415051e+00       3.817591949135e+00 
       2.971640453394e+00       2.164174417533e+00 
       3.741073681031e+00       1.217585383595e+00 
       4.709732724445e+00       6.803302916454e-01 
       5.929202209562e+00       3.777666514560e-01 
       7.464423333284e+00       2.085690555436e-01 
       9.397152218661e+00       1.145537373143e-01 
       1.183031372657e+01       6.261634500782e-02 
