# Matter power spectrum P(k) at redshift z=0.5
# for k=1.87083e-07 to 11.8192 h/Mpc,
# number of wavenumbers equal to 140
#    1:k (h/Mpc)              2:P (Mpc/h)^3        
       1.870829173665e-07       7.121393872059e-01 
       2.355234387852e-07       8.944066222663e-01 
       2.965064421599e-07       1.123323916410e+00 
       3.732794947958e-07       1.410831034525e+00 
       4.699310417001e-07       1.771923642118e+00 
       5.916081301871e-07       2.225435441888e+00 
       7.447905089166e-07       2.795020491478e+00 
       9.376356981382e-07       3.510386937440e+00 
       1.180413407392e-06       4.408846511772e+00 
       1.486052434988e-06       5.537260605858e+00 
       1.870829173665e-06       6.954484415000e+00 
       2.355234387852e-06       8.734436621808e+00 
       2.965064421599e-06       1.096995469514e+01 
       3.732794947958e-06       1.377763682660e+01 
       4.699310417001e-06       1.730392293414e+01 
       5.916081301871e-06       2.173273167014e+01 
       7.447905089166e-06       2.729505129387e+01 
       9.376356981382e-06       3.428098372376e+01 
       1.180413407392e-05       4.305486812933e+01 
       1.486052434988e-05       5.407426919555e+01 
       1.870829173665e-05       6.791381319105e+01 
       2.355234387852e-05       8.529510058605e+01 
       2.965064421599e-05       1.071242266344e+02 
       3.732794947958e-05       1.345388097157e+02 
       4.699310417001e-05       1.689668668703e+02 
       5.916081301871e-05       2.122003824240e+02 
       7.447905089166e-05       2.664869622716e+02 
       9.376356981382e-05       3.346434790697e+02 
       1.180413407392e-04       4.201959235507e+02 
       1.486052434988e-04       5.275494412722e+02 
       1.870829173665e-04       6.621911086520e+02 
       2.355234387852e-04       8.309243054723e+02 
       2.965064421599e-04       1.042126047889e+03 
       3.732794947958e-04       1.306005979684e+03 
       4.699310417001e-04       1.634828584474e+03 
       5.916081301871e-04       2.043044063939e+03 
       7.447905089166e-04       2.547263083711e+03 
       9.376356981382e-04       3.165974380145e+03 
       1.180413407392e-03       3.918742283628e+03 
       1.486052434988e-03       4.824414627914e+03 
       1.870829173665e-03       5.898114335767e+03 
       2.355234387852e-03       7.146879877650e+03 
       2.965064421599e-03       8.563803964914e+03 
       3.732794947958e-03       1.012123033260e+04 
       4.699310417001e-03       1.176297165045e+04 
       5.916081301871e-03       1.337605021625e+04 
       7.447905089166e-03       1.486318362660e+04 
       9.376356981382e-03       1.603651444376e+04 
       1.180413407392e-02       1.668852568408e+04 
       1.486052434988e-02       1.659911082016e+04 
       1.870829171346e-02       1.559267919615e+04 
       2.355231562191e-02       1.365501039677e+04 
       2.964490466925e-02       1.109377545126e+04 
       3.706072599130e-02       8.636558808080e+03 
       4.398663303296e-02       7.178439794262e+03 
       4.894180983666e-02       6.513034716062e+03 
       5.291341609524e-02       6.115888061726e+03 
       5.640657878345e-02       5.816628502715e+03 
       5.963659729792e-02       5.552759985372e+03 
       6.271321450586e-02       5.296569222761e+03 
       6.570048930294e-02       5.035498636353e+03 
       6.863966403943e-02       4.765264052488e+03 
       7.155934911028e-02       4.486758328050e+03 
       7.448061446731e-02       4.204237893142e+03 
       7.741976775881e-02       3.923975912022e+03 
       8.038997694496e-02       3.653112619431e+03 
       8.340227081548e-02       3.398644339098e+03 
       8.646618368014e-02       3.166572286540e+03 
       8.959018608801e-02       2.961251008915e+03 
       9.278198133046e-02       2.784959307692e+03 
       9.604871464694e-02       2.637689657799e+03 
       9.939712382732e-02       2.517134273257e+03 
       1.028336493622e-01       2.418852238526e+03 
       1.063645159764e-01       2.336630038350e+03 
       1.099957934815e-01       2.263081267690e+03 
       1.137334424158e-01       2.190526204650e+03 
       1.175833483431e-01       2.112123169418e+03 
       1.215513476400e-01       2.023092903559e+03 
       1.256432469023e-01       1.921734741170e+03 
       1.298648376449e-01       1.809873465252e+03 
       1.342219076571e-01       1.692474499155e+03 
       1.387202501776e-01       1.576425296539e+03 
       1.433656719164e-01       1.468792608590e+03 
       1.481640008694e-01       1.375061728340e+03 
       1.531210948185e-01       1.297838624868e+03 
       1.582428513747e-01       1.236299240112e+03 
       1.635352204024e-01       1.186470250114e+03 
       1.690042196500e-01       1.142320657692e+03 
       1.746559544002e-01       1.097538949734e+03 
       1.804966419513e-01       1.047597933967e+03 
       1.865326417386e-01       9.913413801934e+02 
       1.927704919172e-01       9.312559813208e+02 
       1.992169532515e-01       8.721371915341e+02 
       2.058790612072e-01       8.187635259631e+02 
       2.127641872205e-01       7.737561925203e+02 
       2.198801102506e-01       7.366127705037e+02 
       2.272350999071e-01       7.042592877491e+02 
       2.348380127113e-01       6.728189635778e+02 
       2.426984034201e-01       6.397344688001e+02 
       2.508266538390e-01       6.050245301766e+02 
       2.592341222177e-01       5.708299897791e+02 
       2.679333172053e-01       5.396060198037e+02 
       2.769381015083e-01       5.123483572632e+02 
       2.862639319420e-01       4.881146950093e+02 
       2.959281446220e-01       4.650414377809e+02 
       3.059502967928e-01       4.419311301201e+02 
       3.163525805183e-01       4.190414081077e+02 
       3.271603285536e-01       3.974432870881e+02 
       3.384026397768e-01       3.777407596242e+02 
       3.501131614886e-01       3.595237279902e+02 
       3.623310800544e-01       3.420012338814e+02 
       3.751023919371e-01       3.249147186957e+02 
       3.884815575749e-01       3.086032510925e+02 
       4.025336864071e-01       2.933013845452e+02 
       4.173374719946e-01       2.787746385085e+02 
       4.329892076450e-01       2.647346403419e+02 
       4.496083935407e-01       2.512069499298e+02 
       4.673457476702e-01       2.382607869718e+02 
       4.863949524301e-01       2.257572970640e+02 
       5.070103985804e-01       2.135793048921e+02 
       5.295349237074e-01       2.017058007273e+02 
       5.544449399802e-01       1.900296121475e+02 
       5.824273689884e-01       1.784293668487e+02 
       6.145182371084e-01       1.667740719130e+02 
       6.523690882593e-01       1.548605592885e+02 
       6.987988665382e-01       1.424071511124e+02 
       7.590313708436e-01       1.289772553530e+02 
       8.436233137149e-01       1.138964417955e+02 
       9.745985944548e-01       9.636682054444e+01 
       1.186354791798e+00       7.687163551194e+01 
       1.488066998528e+00       5.902625810173e+01 
       1.873214561369e+00       4.464432481420e+01 
       2.358236556303e+00       3.318616558200e+01 
       2.968843927001e+00       2.412314792797e+01 
       3.737553063352e+00       1.707852938330e+01 
       4.705300529383e+00       1.174509647859e+01 
       5.923622406569e+00       7.841528294334e+00 
       7.457398777503e+00       5.091569430353e+00 
       9.388308826882e+00       3.225941689470e+00 
       1.181918055593e+01       2.002175856921e+00 
