# Matter power spectrum P(k) at redshift z=1.5
# for k=2.0417e-07 to 10.2446 h/Mpc,
# number of wavenumbers equal to 139
#    1:k (h/Mpc)              2:P (Mpc/h)^3        
       2.041702171830e-07       1.992854613968e-01 
       2.570350747432e-07       2.497385674715e-01 
       3.235879873166e-07       3.129648877874e-01 
       4.073731401842e-07       3.921982173026e-01 
       5.128523982602e-07       4.914910507746e-01 
       6.456429166694e-07       6.159218529239e-01 
       8.128162747400e-07       7.718548031159e-01 
       1.023275063390e-06       9.672652993180e-01 
       1.288226980557e-06       1.212147869165e+00 
       1.621781681982e-06       1.519027352263e+00 
       2.041702171830e-06       1.903599494494e+00 
       2.570350747432e-06       2.385533720094e+00 
       3.235879873166e-06       2.989479134542e+00 
       4.073731401842e-06       3.746325202216e+00 
       5.128523982602e-06       4.694781563732e+00 
       6.456429166694e-06       5.883357761247e+00 
       8.128162747400e-06       7.372844063413e+00 
       1.023275063390e-05       9.239420147957e+00 
       1.288226980557e-05       1.157855038756e+01 
       1.621781681982e-05       1.450986445902e+01 
       2.041702171830e-05       1.818327191499e+01 
       2.570350747432e-05       2.278662145838e+01 
       3.235879873166e-05       2.855529273973e+01 
       4.073731401842e-05       3.578420345153e+01 
       5.128523982602e-05       4.484283034324e+01 
       6.456429166694e-05       5.619398180411e+01 
       8.128162747400e-05       7.041722144370e+01 
       1.023275063390e-04       8.823802114536e+01 
       1.288226980557e-04       1.105638995640e+02 
       1.621781681982e-04       1.385289354762e+02 
       2.041702171830e-04       1.735480456500e+02 
       2.570350747432e-04       2.173821158366e+02 
       3.235879873166e-04       2.722141872279e+02 
       4.073731401842e-04       3.407350242324e+02 
       5.128523982602e-04       4.262331462018e+02 
       6.456429166694e-04       5.326799296913e+02 
       8.128162747400e-04       6.647959694604e+02 
       1.023275063390e-03       8.280813937290e+02 
       1.288226980557e-03       1.028780850334e+03 
       1.621781681982e-03       1.273705002158e+03 
       2.041702171830e-03       1.569765164646e+03 
       2.570350747432e-03       1.923137699226e+03 
       3.235879873166e-03       2.337992943275e+03 
       4.073731401842e-03       2.814640009467e+03 
       5.128523982602e-03       3.342891410001e+03 
       6.456429166694e-03       3.913006728464e+03 
       8.128162747400e-03       4.492617257111e+03 
       1.023275063390e-02       5.034472908662e+03 
       1.288226980557e-02       5.471126315884e+03 
       1.621781681953e-02       5.717593475948e+03 
       2.041702070683e-02       5.687786799268e+03 
       2.570302707647e-02       5.336201943007e+03 
       3.231352569502e-02       4.725270246792e+03 
       3.968479419532e-02       4.105811669597e+03 
       4.535971563005e-02       3.744684973931e+03 
       4.960729946002e-02       3.533098314852e+03 
       5.320019404592e-02       3.380197263290e+03 
       5.645183434186e-02       3.252834785592e+03 
       5.950876177009e-02       3.136115988203e+03 
       6.245137356484e-02       3.022358123551e+03 
       6.532913604229e-02       2.907527474867e+03 
       6.817518277206e-02       2.789826800816e+03 
       7.101323161328e-02       2.669014337251e+03 
       7.386120778415e-02       2.545987312278e+03 
       7.673329331089e-02       2.422455752892e+03 
       7.964115873352e-02       2.300638812253e+03 
       8.259474034134e-02       2.182963807730e+03 
       8.560275057488e-02       2.071771600900e+03 
       8.867302441059e-02       1.969043571660e+03 
       9.181276091355e-02       1.876167893832e+03 
       9.502869548333e-02       1.793762307543e+03 
       9.832722490097e-02       1.721567960336e+03 
       1.017144993806e-01       1.658427417303e+03 
       1.051964910191e-01       1.602361596737e+03 
       1.087790450291e-01       1.550762232085e+03 
       1.124679182139e-01       1.500708112387e+03 
       1.162688078915e-01       1.449393717320e+03 
       1.201873736439e-01       1.394619182908e+03 
       1.242292537207e-01       1.335245543853e+03 
       1.284000775581e-01       1.271486703355e+03 
       1.327054756298e-01       1.204920477691e+03 
       1.371510876906e-01       1.138163594569e+03 
       1.417425703659e-01       1.074259011670e+03 
       1.464856049793e-01       1.015922734101e+03 
       1.513859064664e-01       9.648490197433e+02 
       1.564492341986e-01       9.212586501931e+02 
       1.616814055258e-01       8.838187303211e+02 
       1.670883128337e-01       8.499930489016e+02 
       1.726759449042e-01       8.167941009139e+02 
       1.784504133686e-01       7.817705366356e+02 
       1.844179850416e-01       7.438945218121e+02 
       1.905851209474e-01       7.039378587924e+02 
       1.969585228787e-01       6.640842209462e+02 
       2.035451883945e-01       6.269010967710e+02 
       2.103524752631e-01       5.941522493681e+02 
       2.173881765050e-01       5.660226621395e+02 
       2.246606074143e-01       5.411235108370e+02 
       2.321787062381e-01       5.172909610238e+02 
       2.399521506151e-01       4.928009574218e+02 
       2.479914924344e-01       4.673134988458e+02 
       2.563083145217e-01       4.419133067229e+02 
       2.649154135491e-01       4.181955994417e+02 
       2.738270148701e-01       3.970704062803e+02 
       2.830590267130e-01       3.781730436350e+02 
       2.926293434788e-01       3.602917288243e+02 
       3.025582109973e-01       3.424325837277e+02 
       3.128686708291e-01       3.245937856979e+02 
       3.235871065199e-01       3.075465216544e+02 
       3.347439228450e-01       2.918983760353e+02 
       3.463744005882e-01       2.774624421263e+02 
       3.585197859715e-01       2.635815430017e+02 
       3.712286981109e-01       2.499395593550e+02 
       3.845589740994e-01       2.368132731081e+02 
       3.985801265007e-01       2.244995396107e+02 
       4.133766740690e-01       2.128340666493e+02 
       4.290527440035e-01       2.015080161747e+02 
       4.457385700165e-01       1.905385761274e+02 
       4.635998935924e-01       1.800494678524e+02 
       4.828519484295e-01       1.699142306367e+02 
       5.037809365185e-01       1.600066808427e+02 
       5.267782507925e-01       1.503451960774e+02 
       5.523974154870e-01       1.408313139035e+02 
       5.814537587112e-01       1.313606825984e+02 
       6.152096513037e-01       1.218276996618e+02 
       6.557437306715e-01       1.120505582147e+02 
       7.067468983599e-01       1.017776803123e+02 
       7.753692732106e-01       9.062122035633e+01 
       8.765186847178e-01       7.805477518586e+01 
       1.039178051930e+00       6.385582548752e+01 
       1.290575926919e+00       4.975492354275e+01 
       1.623671038535e+00       3.817704514987e+01 
       2.044067075690e+00       2.900525400859e+01 
       2.573327953106e+00       2.166718572001e+01 
       3.239627953036e+00       1.581434757223e+01 
       4.078449954835e+00       1.122405205784e+01 
       5.134464288873e+00       7.722192450814e+00 
       6.463907569212e+00       5.145868931135e+00 
       8.137577498370e+00       3.327600276033e+00 
       1.024460310314e+01       2.096199123191e+00 
