# Matter power spectrum P(k) at redshift z=0.5
# for k=1.86919e-07 to 11.809 h/Mpc,
# number of wavenumbers equal to 140
#    1:k (h/Mpc)              2:P (Mpc/h)^3        
       1.869188606920e-07       1.055682640038e+00 
       2.353169036688e-07       1.318206289741e+00 
       2.962464298534e-07       1.646013446933e+00 
       3.729521586957e-07       2.055338596251e+00 
       4.695189499656e-07       2.566453358607e+00 
       5.910893374306e-07       3.204670432045e+00 
       7.441373875319e-07       4.001597187390e+00 
       9.368134670300e-07       4.996701001816e+00 
       1.179378279755e-06       6.239263850898e+00 
       1.484749286502e-06       7.790822951253e+00 
       1.869188606920e-06       9.728218318140e+00 
       2.353169036688e-06       1.214739814283e+01 
       2.962464298534e-06       1.516817041203e+01 
       3.729521586957e-06       1.894013600442e+01 
       4.695189499656e-06       2.365009693974e+01 
       5.910893374306e-06       2.953130635224e+01 
       7.441373875319e-06       3.687501765313e+01 
       9.368134670300e-06       4.604490359473e+01 
       1.179378279755e-05       5.749505687915e+01 
       1.484749286502e-05       7.179245885671e+01 
       1.869188606920e-05       8.964501939640e+01 
       2.353169036688e-05       1.119365574544e+02 
       2.962464298534e-05       1.397704168493e+02 
       3.729521586957e-05       1.745238025213e+02 
       4.695189499656e-05       2.179153807080e+02 
       5.910893374306e-05       2.720892000217e+02 
       7.441373875319e-05       3.397185184719e+02 
       9.368134670300e-05       4.241335603184e+02 
       1.179378279755e-04       5.294773570490e+02 
       1.484749286502e-04       6.608932112938e+02 
       1.869188606920e-04       8.247451648172e+02 
       2.353169036688e-04       1.028867842678e+03 
       2.962464298534e-04       1.282832409406e+03 
       3.729521586957e-04       1.598199684391e+03 
       4.695189499656e-04       1.988711139099e+03 
       5.910893374306e-04       2.470351046894e+03 
       7.441373875319e-04       3.061204639408e+03 
       9.368134670300e-04       3.780996948087e+03 
       1.179378279755e-03       4.650003057865e+03 
       1.484749286502e-03       5.686792740996e+03 
       1.869188606920e-03       6.904638300367e+03 
       2.353169036688e-03       8.306556726021e+03 
       2.962464298534e-03       9.878875742432e+03 
       3.729521586957e-03       1.158413987322e+04 
       4.695189499656e-03       1.335387614304e+04 
       5.910893374306e-03       1.505542189942e+04 
       7.441373875319e-03       1.659191216276e+04 
       9.368134670300e-03       1.776734629061e+04 
       1.179378279755e-02       1.838402985905e+04 
       1.484749286502e-02       1.824847088243e+04 
       1.869188604833e-02       1.722354335689e+04 
       2.353166425554e-02       1.532173025390e+04 
       2.961922515091e-02       1.282171282752e+04 
       3.703834899548e-02       1.034019036390e+04 
       4.400553585778e-02       8.718947671474e+03 
       4.899035108799e-02       7.876832772094e+03 
       5.297915878109e-02       7.319403359040e+03 
       5.648439578215e-02       6.877569804149e+03 
       5.972398332122e-02       6.489933971017e+03 
       6.280876756364e-02       6.130013938722e+03 
       6.580335476066e-02       5.786025192746e+03 
       6.874929357561e-02       5.453592223444e+03 
       7.167538189180e-02       5.132445637180e+03 
       7.460281268038e-02       4.824584040203e+03 
       7.754797897733e-02       4.533062986827e+03 
       8.052411087628e-02       4.261107511146e+03 
       8.354228426769e-02       4.011439783461e+03 
       8.661207048786e-02       3.785787067856e+03 
       8.974197016409e-02       3.584560926811e+03 
       9.293971176312e-02       3.406704441030e+03 
       9.621246217872e-02       3.249706376492e+03 
       9.956697829299e-02       3.109784235884e+03 
       1.030097178080e-01       2.982238146683e+03 
       1.065469212725e-01       2.861970528302e+03 
       1.101846732980e-01       2.744139320859e+03 
       1.139289484680e-01       2.624867263244e+03 
       1.177856458405e-01       2.501875697746e+03 
       1.217606148870e-01       2.374879025406e+03 
       1.258596750130e-01       2.245592784065e+03 
       1.300886303419e-01       2.117292035391e+03 
       1.344532811312e-01       1.993986576211e+03 
       1.389594329885e-01       1.879407553807e+03 
       1.436129049196e-01       1.776068397950e+03 
       1.484195371575e-01       1.684646205580e+03 
       1.533851996654e-01       1.603846341542e+03 
       1.585158021761e-01       1.530800458601e+03 
       1.638173066065e-01       1.461925092485e+03 
       1.692957426743e-01       1.394026046316e+03 
       1.749572275330e-01       1.325295617972e+03 
       1.808079902372e-01       1.255804022170e+03 
       1.868544018495e-01       1.187238337185e+03 
       1.931030120120e-01       1.121979661979e+03 
       1.995605928295e-01       1.061947975720e+03 
       2.062341909588e-01       1.007762054105e+03 
       2.131311888841e-01       9.585902625579e+02 
       2.202593764802e-01       9.127191907704e+02 
       2.276270341581e-01       8.685107547087e+02 
       2.352430291495e-01       8.252068046182e+02 
       2.431169268593e-01       7.831183023506e+02 
       2.512591197080e-01       7.431312154449e+02 
       2.596809765559e-01       7.059301060492e+02 
       2.683950166807e-01       6.715091906159e+02 
       2.774151134452e-01       6.392732939440e+02 
       2.867567343376e-01       6.085560907625e+02 
       2.964372261174e-01       5.790781173348e+02 
       3.064761565492e-01       5.509761007694e+02 
       3.168957279231e-01       5.244644581934e+02 
       3.277212826482e-01       4.995229587625e+02 
       3.389819282483e-01       4.759075594310e+02 
       3.507113189919e-01       4.533909823175e+02 
       3.629486455245e-01       4.319109526294e+02 
       3.757399043777e-01       4.114820408515e+02 
       3.891395495501e-01       3.920485418058e+02 
       4.032126740456e-01       3.734858506505e+02 
       4.180379396405e-01       3.556982174468e+02 
       4.337115841728e-01       3.386364555923e+02 
       4.503530154497e-01       3.222366343220e+02 
       4.681128007455e-01       3.064086072929e+02 
       4.871843777218e-01       2.910699094040e+02 
       5.078217371138e-01       2.761390129220e+02 
       5.303670520654e-01       2.615132464679e+02 
       5.552956029982e-01       2.470763268330e+02 
       5.832923157687e-01       2.326863680686e+02 
       6.153895345547e-01       2.181564821646e+02 
       6.532316110008e-01       2.032319003035e+02 
       6.996224435926e-01       1.875370989214e+02 
       7.597519770508e-01       1.704888441109e+02 
       8.440977979569e-01       1.511676853891e+02 
       9.745329800761e-01       1.284198676742e+02 
       1.185514727728e+00       1.026611940664e+02 
       1.486792655631e+00       7.862317439510e+01 
       1.871601092406e+00       5.902963120804e+01 
       2.356205246787e+00       4.337998363763e+01 
       2.966286659746e+00       3.106744690996e+01 
       3.734333654620e+00       2.161550494718e+01 
       4.701247533920e+00       1.459386204766e+01 
       5.918519987586e+00       9.573885724614e+00 
       7.450975212584e+00       6.122037513843e+00 
       9.380222037770e+00       3.830822814266e+00 
       1.180899989162e+01       2.355000518432e+00 
