# Matter power spectrum P(k) at redshift z=2
# for k=2.29539e-07 to 11.5169 h/Mpc,
# number of wavenumbers equal to 139
#    1:k (h/Mpc)              2:P (Mpc/h)^3        
       2.295386263736e-07       1.403901941411e-01 
       2.889720097300e-07       1.748907234973e-01 
       3.637942063464e-07       2.178696691934e-01 
       4.579897710330e-07       2.714105802636e-01 
       5.765749610952e-07       3.381090323968e-01 
       7.258648703270e-07       4.211984572979e-01 
       9.138097307833e-07       5.247068939139e-01 
       1.150418291628e-06       6.536522609781e-01 
       1.448290821523e-06       8.142856169886e-01 
       1.823290118884e-06       1.014394200049e+00 
       2.295386263736e-06       1.263678938949e+00 
       2.889720097300e-06       1.574224733421e+00 
       3.637942063464e-06       1.961086302710e+00 
       4.579897710330e-06       2.443017998079e+00 
       5.765749610952e-06       3.043382950894e+00 
       7.258648703270e-06       3.791285616681e+00 
       9.138097307833e-06       4.722982589620e+00 
       1.150418291628e-05       5.883640019365e+00 
       1.448290821523e-05       7.329522711825e+00 
       1.823290118884e-05       9.130720809218e+00 
       2.295386263736e-05       1.137454577851e+01 
       2.889720097300e-05       1.416975943446e+01 
       3.637942063464e-05       1.765183925940e+01 
       4.579897710330e-05       2.198953175482e+01 
       5.765749610952e-05       2.739300464365e+01 
       7.258648703270e-05       3.412397955815e+01 
       9.138097307833e-05       4.250830966642e+01 
       1.150418291628e-04       5.295155959749e+01 
       1.448290821523e-04       6.595824021756e+01 
       1.823290118884e-04       8.215543087452e+01 
       2.295386263736e-04       1.023215481999e+02 
       2.889720097300e-04       1.274209202682e+02 
       3.637942063464e-04       1.586444680872e+02 
       4.579897710330e-04       1.974559845988e+02 
       5.765749610952e-04       2.456420023044e+02 
       7.258648703270e-04       3.053609705930e+02 
       9.138097307833e-04       3.791848657074e+02 
       1.150418291628e-03       4.701243677446e+02 
       1.448290821523e-03       5.816256644642e+02 
       1.823290118884e-03       7.175104043665e+02 
       2.295386263736e-03       8.817865928273e+02 
       2.889720097300e-03       1.078258792200e+03 
       3.637942063464e-03       1.309914525451e+03 
       4.579897710330e-03       1.577984663082e+03 
       5.765749610952e-03       1.878484725554e+03 
       7.258648703270e-03       2.207593233839e+03 
       9.138097307833e-03       2.549385820177e+03 
       1.150418291628e-02       2.878977362935e+03 
       1.448290821523e-02       3.158596568567e+03 
       1.823290118862e-02       3.337544238968e+03 
       2.295386181321e-02       3.359889028878e+03 
       2.889677530148e-02       3.188019582223e+03 
       3.633646376574e-02       2.845427295582e+03 
       4.473233385621e-02       2.474195868807e+03 
       5.129040743909e-02       2.252252264443e+03 
       5.616755052521e-02       2.125690915633e+03 
       6.027506403072e-02       2.037374127385e+03 
       6.398377916806e-02       1.966085570127e+03 
       6.746557720770e-02       1.902110880004e+03 
       7.081415905345e-02       1.840232960137e+03 
       7.408691206613e-02       1.777495692104e+03 
       7.732214114661e-02       1.712342154828e+03 
       8.054718913004e-02       1.644221995421e+03 
       8.378267272118e-02       1.573367980724e+03 
       8.704487097638e-02       1.500626579977e+03 
       9.034715711549e-02       1.427294993099e+03 
       9.370090016286e-02       1.354946845047e+03 
       9.711605603923e-02       1.285247085624e+03 
       1.006015681431e-01       1.219765191328e+03 
       1.041656463740e-01       1.159799715061e+03 
       1.078159659102e-01       1.106228255136e+03 
       1.115598114088e-01       1.059394488310e+03 
       1.154041830977e-01       1.019041490047e+03 
       1.193558756342e-01       9.843010096831e+02 
       1.234215371148e-01       9.537502933734e+02 
       1.276077133877e-01       9.255503896179e+02 
       1.319208813624e-01       8.976747461555e+02 
       1.363674740584e-01       8.682204573473e+02 
       1.409538994900e-01       8.357627239293e+02 
       1.456865550673e-01       7.996766702881e+02 
       1.505718389044e-01       7.603278619152e+02 
       1.556161592481e-01       7.190444091818e+02 
       1.608259431147e-01       6.778391658303e+02 
       1.662076451498e-01       6.389316346067e+02 
       1.717677576794e-01       6.041918011347e+02 
       1.775128228875e-01       5.746545509410e+02 
       1.834494480411e-01       5.502315690202e+02 
       1.895843246659e-01       5.297032478708e+02 
       1.959242525720e-01       5.110301864627e+02 
       2.024761696226e-01       4.919641014120e+02 
       2.092471881452e-01       4.708219750710e+02 
       2.162446389029e-01       4.471398521476e+02 
       2.234761235798e-01       4.218682063184e+02 
       2.309495768064e-01       3.969372772803e+02 
       2.386733388603e-01       3.743571496245e+02 
       2.466562403480e-01       3.552876990674e+02 
       2.549077004164e-01       3.395257101931e+02 
       2.634378403875e-01       3.256543370333e+02 
       2.722576151771e-01       3.118218897179e+02 
       2.813789654861e-01       2.967974654102e+02 
       2.908149945932e-01       2.806769222021e+02 
       3.005801746829e-01       2.647080550033e+02 
       3.106905891102e-01       2.503160599805e+02 
       3.211642189427e-01       2.380553853573e+02 
       3.320212847152e-01       2.272728877775e+02 
       3.432846578128e-01       2.167284490625e+02 
       3.549803606386e-01       2.056794881061e+02 
       3.671381812383e-01       1.944650684134e+02 
       3.797924371434e-01       1.840058811434e+02 
       3.929829360582e-01       1.747568279152e+02 
       4.067561995197e-01       1.662659916481e+02 
       4.211670427305e-01       1.578106027713e+02 
       4.362806441435e-01       1.492974573288e+02 
       4.521752998362e-01       1.412309723486e+02 
       4.689461534072e-01       1.338434042556e+02 
       4.867103448918e-01       1.267650361234e+02 
       5.056142729030e-01       1.197232312100e+02 
       5.258440886029e-01       1.129447044061e+02 
       5.476412839323e-01       1.065282435072e+02 
       5.713265923938e-01       1.002217806291e+02 
       5.973380047430e-01       9.402254291754e+01 
       6.262938825097e-01       8.798191439707e+01 
       6.591031529096e-01       8.194034998058e+01 
       6.971694840615e-01       7.588432693742e+01 
       7.427968305565e-01       6.967578521444e+01 
       8.000604576192e-01       6.317605947165e+01 
       8.768223445374e-01       5.614477837219e+01 
       9.894410712587e-01       4.826618568181e+01 
       1.170083561028e+00       3.939943949638e+01 
       1.451043176514e+00       3.058857506181e+01 
       1.825321555469e+00       2.338980344365e+01 
       2.297923968947e+00       1.774173289544e+01 
       2.892914828629e+00       1.325345802707e+01 
       3.641963991901e+00       9.686180375285e+00 
       4.584961018243e+00       6.891170988155e+00 
       5.772123937952e+00       4.756430356725e+00 
       7.266673505513e+00       3.180686751994e+00 
       9.148199935302e+00       2.063264001290e+00 
       1.151690137073e+01       1.302886965877e+00 
