# Matter power spectrum P(k) at redshift z=2
# for k=1.72234e-07 to 10.8814 h/Mpc,
# number of wavenumbers equal to 140
#    1:k (h/Mpc)              2:P (Mpc/h)^3        
       1.722342074823e-07       4.299606230745e-01 
       2.168300205797e-07       5.374012634505e-01 
       2.729728229476e-07       6.716896906525e-01 
       3.436524235379e-07       8.395347593481e-01 
       4.326327688166e-07       1.049321764679e+00 
       5.446523866380e-07       1.311531359952e+00 
       6.856767301330e-07       1.639263152969e+00 
       8.632158598403e-07       2.048890143180e+00 
       1.086724381817e-06       2.560876689720e+00 
       1.368104939885e-06       3.200800876915e+00 
       1.722342074823e-06       4.000632347247e+00 
       2.168300205797e-06       5.000329437509e+00 
       2.729728229476e-06       6.249835400916e+00 
       3.436524235379e-06       7.811573420474e+00 
       4.326327688166e-06       9.763565023505e+00 
       5.446523866380e-06       1.220332761512e+01 
       6.856767301330e-06       1.525274569054e+01 
       8.632158598403e-06       1.906415879233e+01 
       1.086724381817e-05       2.382796977525e+01 
       1.368104939885e-05       2.978215226755e+01 
       1.722342074823e-05       3.722413006862e+01 
       2.168300205797e-05       4.652561728441e+01 
       2.729728229476e-05       5.815115159623e+01 
       3.436524235379e-05       7.268122855074e+01 
       4.326327688166e-05       9.084115713984e+01 
       5.446523866380e-05       1.135370080501e+02 
       6.856767301330e-05       1.419003121098e+02 
       8.632158598403e-05       1.773434695536e+02 
       1.086724381817e-04       2.216281042113e+02 
       1.368104939885e-04       2.769487368152e+02 
       1.722342074823e-04       3.460339497995e+02 
       2.168300205797e-04       4.322662823756e+02 
       2.729728229476e-04       5.398197761074e+02 
       3.436524235379e-04       6.738094535389e+02 
       4.326327688166e-04       8.404391884828e+02 
       5.446523866380e-04       1.047123802671e+03 
       6.856767301330e-04       1.302551425895e+03 
       8.632158598403e-04       1.616648115307e+03 
       1.086724381817e-03       2.000393451275e+03 
       1.368104939885e-03       2.465344606697e+03 
       1.722342074823e-03       3.022559305551e+03 
       2.168300205797e-03       3.680738949851e+03 
       2.729728229476e-03       4.443653382937e+03 
       3.436524235379e-03       5.306540441917e+03 
       4.326327688166e-03       6.245183050492e+03 
       5.446523866380e-03       7.232496608820e+03 
       6.856767301330e-03       8.202856962595e+03 
       8.632158598403e-03       9.065380353282e+03 
       1.086724381817e-02       9.698517613369e+03 
       1.368104939816e-02       9.959930767572e+03 
       1.722341889082e-02       9.721736148768e+03 
       2.168228266805e-02       8.946585670304e+03 
       2.723990997946e-02       7.795865059077e+03 
       3.323376791117e-02       6.741722037726e+03 
       3.770910763426e-02       6.152684655237e+03 
       4.111404967149e-02       5.795350364840e+03 
       4.402372904276e-02       5.529303633735e+03 
       4.667161195143e-02       5.303379874327e+03 
       4.916917767697e-02       5.094580421778e+03 
       5.157853170125e-02       4.891294798698e+03 
       5.393831251618e-02       4.687741758148e+03 
       5.627462180206e-02       4.481690987897e+03 
       5.860627185685e-02       4.273315230362e+03 
       6.094756163676e-02       4.064459390184e+03 
       6.330985929789e-02       3.858065046790e+03 
       6.570255920149e-02       3.657648128367e+03 
       6.813368885472e-02       3.466806823159e+03 
       7.061030913663e-02       3.288767599243e+03 
       7.313878684390e-02       3.125989409059e+03 
       7.572498528919e-02       2.979852420717e+03 
       7.837440052491e-02       2.850451644166e+03 
       8.109226041828e-02       2.736515920463e+03 
       8.388359768344e-02       2.635470289539e+03 
       8.675330423903e-02       2.543662994016e+03 
       8.970617191535e-02       2.456773754560e+03 
       9.274692303164e-02       2.370394699346e+03 
       9.588023338295e-02       2.280733332299e+03 
       9.911074952769e-02       2.185320898183e+03 
       1.024431018357e-01       2.083555045937e+03 
       1.058819144698e-01       1.976894834003e+03 
       1.094318132824e-01       1.868584114499e+03 
       1.130974324864e-01       1.762912579064e+03 
       1.168834208754e-01       1.664171187559e+03 
       1.207944483223e-01       1.575571002199e+03 
       1.248352132492e-01       1.498411662416e+03 
       1.290104517441e-01       1.431726672769e+03 
       1.333249489874e-01       1.372530947908e+03 
       1.377835536405e-01       1.316677816166e+03 
       1.423911958454e-01       1.260164376558e+03 
       1.471529094811e-01       1.200502506310e+03 
       1.520738593291e-01       1.137602982045e+03 
       1.571593738133e-01       1.073702241836e+03 
       1.624149840116e-01       1.012272083397e+03 
       1.678464696906e-01       9.563904634179e+02 
       1.734599132022e-01       9.073534907378e+02 
       1.792617622084e-01       8.641876674324e+02 
       1.852589023918e-01       8.242941025835e+02 
       1.914587415663e-01       7.849191226632e+02 
       1.978693069612e-01       7.446676364111e+02 
       2.044993579261e-01       7.041312696203e+02 
       2.113585169406e-01       6.651996041678e+02 
       2.184574226466e-01       6.295596574059e+02 
       2.258079097355e-01       5.974998329402e+02 
       2.334232219866e-01       5.678741761645e+02 
       2.413182667227e-01       5.391731313429e+02 
       2.495099215915e-01       5.107598747270e+02 
       2.580174081878e-01       4.831818327335e+02 
       2.668627519984e-01       4.573427228389e+02 
       2.760713550977e-01       4.334688461744e+02 
       2.856727178773e-01       4.109611113255e+02 
       2.957013603058e-01       3.891763261412e+02 
       3.061980140733e-01       3.681031166710e+02 
       3.172111881841e-01       3.481109091452e+02 
       3.287992582352e-01       3.292571672579e+02 
       3.410333041339e-01       3.112089602948e+02 
       3.540010404826e-01       2.937724750424e+02 
       3.678123808701e-01       2.770431120290e+02 
       3.826075126197e-01       2.610056457889e+02 
       3.985689497903e-01       2.454706884031e+02 
       4.159401174105e-01       2.303687874753e+02 
       4.350551043074e-01       2.156487555122e+02 
       4.563884379471e-01       2.011563322568e+02 
       4.806427775742e-01       1.867665817812e+02 
       5.089131314028e-01       1.722889411827e+02 
       5.430170571448e-01       1.574636743622e+02 
       5.862131637348e-01       1.419055370925e+02 
       6.448788964121e-01       1.250403365958e+02 
       7.323632461612e-01       1.061469267193e+02 
       8.737576336039e-01       8.522369640364e+01 
       1.088595201340e+00       6.536497656504e+01 
       1.369887709758e+00       4.964791414897e+01 
       1.724580349900e+00       3.747114787494e+01 
       2.171118015725e+00       2.790194415452e+01 
       2.733275641998e+00       2.036855118054e+01 
       3.440990163149e+00       1.450587468112e+01 
       4.331949958122e+00       1.004311712683e+01 
       5.453601884900e+00       6.746971671686e+00 
       6.865677998709e+00       4.399312638922e+00 
       8.643376501771e+00       2.791429730785e+00 
       1.088136632178e+01       1.730457923958e+00 
