# Matter power spectrum P(k) at redshift z=1
# for k=2.12519e-07 to 10.6631 h/Mpc,
# number of wavenumbers equal to 139
#    1:k (h/Mpc)              2:P (Mpc/h)^3        
       2.125194555907e-07       5.045321947585e-01 
       2.675461431437e-07       6.259200796418e-01 
       3.368206384312e-07       7.765132731520e-01 
       4.240320609378e-07       9.633384242283e-01 
       5.338247369300e-07       1.195112757266e+00 
       6.720455267655e-07       1.482650816240e+00 
       8.460551915277e-07       1.839369068479e+00 
       1.065120380395e-06       2.281911913212e+00 
       1.340907113499e-06       2.830928303487e+00 
       1.688102040039e-06       3.512035218208e+00 
       2.125194555907e-06       4.357012935625e+00 
       2.675461431437e-06       5.405287877174e+00 
       3.368206384312e-06       6.705772201481e+00 
       4.240320609378e-06       8.319145967394e+00 
       5.338247369300e-06       1.032068831602e+01 
       6.720455267655e-06       1.280378971500e+01 
       8.460551915277e-06       1.588430901143e+01 
       1.065120380395e-05       1.970597834651e+01 
       1.340907113499e-05       2.444710763912e+01 
       1.688102040039e-05       3.032890048078e+01 
       2.125194555907e-05       3.762576759411e+01 
       2.675461431437e-05       4.667811531144e+01 
       3.368206384312e-05       5.790819847486e+01 
       4.240320609378e-05       7.183976304065e+01 
       5.338247369300e-05       8.912236667146e+01 
       6.720455267655e-05       1.105614566861e+02 
       8.460551915277e-05       1.371555005959e+02 
       1.065120380395e-04       1.701416903454e+02 
       1.340907113499e-04       2.110519428964e+02 
       1.688102040039e-04       2.617810201410e+02 
       2.125194555907e-04       3.246684430757e+02 
       2.675461431437e-04       4.025952144364e+02 
       3.368206384312e-04       4.990947758472e+02 
       4.240320609378e-04       6.184745952896e+02 
       5.338247369300e-04       7.659400104269e+02 
       6.720455267655e-04       9.477060902757e+02 
       8.460551915277e-04       1.171078065304e+03 
       1.065120380395e-03       1.444473889963e+03 
       1.340907113499e-03       1.777331633820e+03 
       1.688102040039e-03       2.179761912052e+03 
       2.125194555907e-03       2.661766249612e+03 
       2.675461431437e-03       3.231931877699e+03 
       3.368206384312e-03       3.895430044575e+03 
       4.240320609378e-03       4.651162572690e+03 
       5.338247369300e-03       5.477380670081e+03 
       6.720455267655e-03       6.363511660725e+03 
       8.460551915277e-03       7.254433868199e+03 
       1.065120380395e-02       8.074893135616e+03 
       1.340907113499e-02       8.718579147278e+03 
       1.688102040016e-02       9.052501218954e+03 
       2.125194472728e-02       8.943022040089e+03 
       2.675419422978e-02       8.321751974443e+03 
       3.364043967129e-02       7.292126980662e+03 
       4.138760660502e-02       6.257129353156e+03 
       4.741497300609e-02       5.658484760225e+03 
       5.190505525144e-02       5.317439293246e+03 
       5.569102430843e-02       5.077326498623e+03 
       5.911156208046e-02       4.881581870499e+03 
       6.232401240346e-02       4.704909884297e+03 
       6.541429771069e-02       4.534159048237e+03 
       6.843510626508e-02       4.362235614072e+03 
       7.142163939351e-02       4.185731280415e+03 
       7.439904339451e-02       4.003807954687e+03 
       7.738629059843e-02       3.817537846798e+03 
       8.039836962149e-02       3.629397422722e+03 
       8.344759924185e-02       3.442796022879e+03 
       8.654445623177e-02       3.261601939412e+03 
       8.969811830918e-02       3.089669638464e+03 
       9.291683223295e-02       2.930392633629e+03 
       9.620817027751e-02       2.786312407556e+03 
       9.957921299295e-02       2.658811401398e+03 
       1.030366818124e-01       2.547912501305e+03 
       1.065870366286e-01       2.452202366763e+03 
       1.102365483319e-01       2.368898885500e+03 
       1.139913530928e-01       2.294088348039e+03 
       1.178574931259e-01       2.223156894773e+03 
       1.218409473327e-01       2.151417869688e+03 
       1.259476543438e-01       2.074884269609e+03 
       1.301835298942e-01       1.991056197546e+03 
       1.345544800739e-01       1.899521741509e+03 
       1.390664117403e-01       1.802153824742e+03 
       1.437252412078e-01       1.702760837092e+03 
       1.485369022173e-01       1.606211166602e+03 
       1.535073541252e-01       1.517235177422e+03 
       1.586425912008e-01       1.439224967870e+03 
       1.639486538997e-01       1.373350617263e+03 
       1.694316429592e-01       1.318221910079e+03 
       1.750977371526e-01       1.270217090812e+03 
       1.809532155312e-01       1.224493631996e+03 
       1.870044849782e-01       1.176522272216e+03 
       1.932581139063e-01       1.123700798459e+03 
       1.997208729442e-01       1.066358230925e+03 
       2.063997834959e-01       1.007552212392e+03 
       2.133021751197e-01       9.516205414582e+02 
       2.204357527761e-01       9.021520059816e+02 
       2.278086751534e-01       8.603683506877e+02 
       2.354296455036e-01       8.246744274916e+02 
       2.433080167419e-01       7.915957859785e+02 
       2.514539129940e-01       7.577139433035e+02 
       2.598783703610e-01       7.215970060824e+02 
       2.685935004454e-01       6.844775823332e+02 
       2.776126812100e-01       6.491244950519e+02 
       2.869507810970e-01       6.177177138373e+02 
       2.966244241352e-01       5.903258455773e+02 
       3.066523061632e-01       5.650857904221e+02 
       3.170555755262e-01       5.398865709581e+02 
       3.278582959934e-01       5.141352433190e+02 
       3.390880156876e-01       4.889896602243e+02 
       3.507764742396e-01       4.658773343651e+02 
       3.629604923171e-01       4.449333554001e+02 
       3.756831048301e-01       4.250382885453e+02 
       3.889950242389e-01       4.052789114238e+02 
       4.029565578527e-01       3.859396691316e+02 
       4.176401600561e-01       3.677648237331e+02 
       4.331338892501e-01       3.507136585857e+02 
       4.495461811774e-01       3.341349840334e+02 
       4.670125832389e-01       3.178806179446e+02 
       4.857054888852e-01       3.022824859693e+02 
       5.058486028637e-01       2.872356805356e+02 
       5.277391296137e-01       2.724129480326e+02 
       5.517830827555e-01       2.578597029396e+02 
       5.785539397768e-01       2.434722853685e+02 
       6.088951219090e-01       2.290192864438e+02 
       6.441100274040e-01       2.143546841587e+02 
       6.863398393139e-01       1.991440417653e+02 
       7.393757881122e-01       1.829460387012e+02 
       8.105400110262e-01       1.650348831620e+02 
       9.150764892512e-01       1.443305023488e+02 
       1.082873302291e+00       1.199640885306e+02 
       1.343424115919e+00       9.429476834466e+01 
       1.690004398537e+00       7.201571243635e+01 
       2.127572397139e+00       5.376539106980e+01 
       2.678454913651e+00       3.901858341254e+01 
       3.371974955126e+00       2.740643415268e+01 
       4.245064958942e+00       1.860308239844e+01 
       5.344220151529e+00       1.222553023370e+01 
       6.727974554983e+00       7.811645688459e+00 
       8.470018137172e+00       4.877138844769e+00 
       1.066312107124e+01       2.989439663978e+00 
