# Matter power spectrum P(k) at redshift z=0.5
# for k=1.78638e-07 to 11.2827 h/Mpc,
# number of wavenumbers equal to 140
#    1:k (h/Mpc)              2:P (Mpc/h)^3        
       1.786378445268e-07       9.254029842813e-01 
       2.248917219829e-07       1.155369491350e+00 
       2.831219037065e-07       1.442483635442e+00 
       3.564293592116e-07       1.800946842456e+00 
       4.487179778210e-07       2.248489651084e+00 
       5.649024650078e-07       2.807248711629e+00 
       7.111700683834e-07       3.504861721630e+00 
       8.953100711953e-07       4.375834456293e+00 
       1.127128600063e-06       5.463247509140e+00 
       1.418970836979e-06       6.820887159250e+00 
       1.786378445268e-06       8.515905757125e+00 
       2.248917219829e-06       1.063214320725e+01 
       2.831219037065e-06       1.327427381071e+01 
       3.564293592116e-06       1.657298353443e+01 
       4.487179778210e-06       2.069143368749e+01 
       5.649024650078e-06       2.583333053100e+01 
       7.111700683834e-06       3.225299957858e+01 
       8.953100711953e-06       4.026796214570e+01 
       1.127128600063e-05       5.027463472181e+01 
       1.418970836979e-05       6.276792478475e+01 
       1.786378445268e-05       7.836568647905e+01 
       2.248917219829e-05       9.783923434588e+01 
       2.831219037065e-05       1.221514016756e+02 
       3.564293592116e-05       1.525039811126e+02 
       4.487179778210e-05       1.903968055702e+02 
       5.649024650078e-05       2.377012173103e+02 
       7.111700683834e-05       2.967512164379e+02 
       8.953100711953e-05       3.704561259995e+02 
       1.127128600063e-04       4.624390401250e+02 
       1.418970836979e-04       5.772053858555e+02 
       1.786378445268e-04       7.203451593519e+02 
       2.248917219829e-04       8.987699959443e+02 
       2.831219037065e-04       1.120981056958e+03 
       3.564293592116e-04       1.397354641786e+03 
       4.487179778210e-04       1.740419617098e+03 
       5.649024650078e-04       2.165087272476e+03 
       7.111700683834e-04       2.688781879344e+03 
       8.953100711953e-04       3.331384296766e+03 
       1.127128600063e-03       4.114768961422e+03 
       1.418970836979e-03       5.061535465874e+03 
       1.786378445268e-03       6.192624493319e+03 
       2.248917219829e-03       7.523507274781e+03 
       2.831219037065e-03       9.058637245731e+03 
       3.564293592116e-03       1.078405254238e+04 
       4.487179778210e-03       1.264052486564e+04 
       5.649024650078e-03       1.457124241414e+04 
       7.111700683834e-03       1.642817250331e+04 
       8.953100711953e-03       1.800861161134e+04 
       1.127128600063e-02       1.903771811018e+04 
       1.418970836976e-02       1.918644676784e+04 
       1.786378425969e-02       1.815188424800e+04 
       2.248903629009e-02       1.584941910746e+04 
       2.829453439815e-02       1.269582522244e+04 
       3.508814008042e-02       9.817425834297e+03 
       4.072646808140e-02       8.331379991790e+03 
       4.483246713941e-02       7.662452482032e+03 
       4.823276457992e-02       7.280618599807e+03 
       5.127552589070e-02       7.012380511480e+03 
       5.411709835168e-02       6.784948168806e+03 
       5.684070586654e-02       6.561114038892e+03 
       5.949645325243e-02       6.320575218777e+03 
       6.211735334914e-02       6.053296417792e+03 
       6.472672894485e-02       5.756642112061e+03 
       6.734201546907e-02       5.433737321902e+03 
       6.997687996832e-02       5.092135345728e+03 
       7.264247946802e-02       4.742454547843e+03 
       7.534824737060e-02       4.396914794191e+03 
       7.810240577915e-02       4.067844958086e+03 
       8.091231090497e-02       3.766302115484e+03 
       8.378469263407e-02       3.500943345442e+03 
       8.672582460168e-02       3.277241549373e+03 
       8.974164722904e-02       3.097055361972e+03 
       9.283785805374e-02       2.958495486457e+03 
       9.601997877420e-02       2.856015545261e+03 
       9.929340537431e-02       2.780721286262e+03 
       1.026634457482e-01       2.721006531111e+03 
       1.061353479819e-01       2.663707213881e+03 
       1.097143216177e-01       2.595908890150e+03 
       1.134055536736e-01       2.507292254308e+03 
       1.172142208228e-01       2.392516770182e+03 
       1.211454988941e-01       2.252831323357e+03 
       1.252045706934e-01       2.096117210568e+03 
       1.293966330400e-01       1.935044510915e+03 
       1.337269038494e-01       1.783790637080e+03 
       1.382006300481e-01       1.654391683324e+03 
       1.428230970830e-01       1.553855545090e+03 
       1.475996407707e-01       1.482662350114e+03 
       1.525356622208e-01       1.434716615245e+03 
       1.576366465602e-01       1.398712592081e+03 
       1.629081861816e-01       1.361078280666e+03 
       1.683560092430e-01       1.310364820086e+03 
       1.739860141558e-01       1.241747616435e+03 
       1.798043108289e-01       1.159196327345e+03 
       1.858172694851e-01       1.073518133440e+03 
       1.920315779511e-01       9.970245832143e+02 
       1.984543084503e-01       9.378123467951e+02 
       2.050929951136e-01       8.964877141247e+02 
       2.119557236862e-01       8.663864272837e+02 
       2.190512352676e-01       8.370881957684e+02 
       2.263890464074e-01       8.001481144245e+02 
       2.339795885254e-01       7.541170686321e+02 
       2.418343704785e-01       7.049800745527e+02 
       2.499661692294e-01       6.612354045262e+02 
       2.583892550673e-01       6.275769758274e+02 
       2.671196598280e-01       6.019779252273e+02 
       2.761754992407e-01       5.779277231120e+02 
       2.855773641629e-01       5.501272766152e+02 
       2.953488004587e-01       5.189799706899e+02 
       3.055169042193e-01       4.893473351898e+02 
       3.161130688276e-01       4.648991117417e+02 
       3.271739344324e-01       4.444030603147e+02 
       3.387426109075e-01       4.238333701810e+02 
       3.508702758642e-01       4.015698566176e+02 
       3.636182955299e-01       3.799362180275e+02 
       3.770610880281e-01       3.610637800357e+02 
       3.912900625799e-01       3.436778893705e+02 
       4.064191543133e-01       3.257995482021e+02 
       4.225927877680e-01       3.081788838108e+02 
       4.399976481041e-01       2.919779599721e+02 
       4.588806272071e-01       2.761494650890e+02 
       4.795771803310e-01       2.602572678454e+02 
       5.025580411698e-01       2.449576737699e+02 
       5.285100458693e-01       2.295964336348e+02 
       5.584842891385e-01       2.141452522612e+02 
       5.941867569413e-01       1.982794029549e+02 
       6.385941406678e-01       1.816163577428e+02 
       6.973632524863e-01       1.634839050525e+02 
       7.821569239938e-01       1.429433454188e+02 
       9.166475536978e-01       1.191428382926e+02 
       1.129933527470e+00       9.388860289590e+01 
       1.420443207393e+00       7.204512908085e+01 
       1.788195281279e+00       5.455298133501e+01 
       2.251204353449e+00       4.057315209758e+01 
       2.834098367638e+00       2.949042250332e+01 
       3.567918454543e+00       2.086654396517e+01 
       4.491743209634e+00       1.433840245301e+01 
       5.654769669862e+00       9.566173761849e+00 
       7.118933235233e+00       6.209662333954e+00 
       8.962205954700e+00       3.935449699006e+00 
       1.128274882211e+01       2.444595086611e+00 
