# Matter power spectrum P(k) at redshift z=2
# for k=2.26054e-07 to 11.3422 h/Mpc,
# number of wavenumbers equal to 139
#    1:k (h/Mpc)              2:P (Mpc/h)^3        
       2.260543999343e-07       1.988028285937e-01 
       2.845856285252e-07       2.471112735909e-01 
       3.582720795817e-07       3.071585144293e-01 
       4.510378253218e-07       3.817970406322e-01 
       5.678229799780e-07       4.745724870607e-01 
       7.148467788950e-07       5.898920661794e-01 
       8.999387754901e-07       7.332339283849e-01 
       1.132955793523e-06       9.114073958431e-01 
       1.426306838906e-06       1.132876431874e+00 
       1.795613924515e-06       1.408161711980e+00 
       2.260543999343e-06       1.750340393884e+00 
       2.845856285252e-06       2.175667326725e+00 
       3.582720795817e-06       2.704347205564e+00 
       4.510378253218e-06       3.361494341536e+00 
       5.678229799780e-06       4.178325624690e+00 
       7.148467788950e-06       5.193643316995e+00 
       8.999387754901e-06       6.455678050858e+00 
       1.132955793523e-05       8.024379446518e+00 
       1.426306838906e-05       9.974262922854e+00 
       1.795613924515e-05       1.239794742402e+01 
       2.260543999343e-05       1.541055113552e+01 
       2.845856285252e-05       1.915515208538e+01 
       3.582720795817e-05       2.380956919008e+01 
       4.510378253218e-05       2.959477839594e+01 
       5.678229799780e-05       3.678534892707e+01 
       7.148467788950e-05       4.572236646046e+01 
       8.999387754901e-05       5.682940010470e+01 
       1.132955793523e-04       7.063216034951e+01 
       1.426306838906e-04       8.778256435464e+01 
       1.795613924515e-04       1.090879301338e+02 
       2.260543999343e-04       1.355458761505e+02 
       2.845856285252e-04       1.683850494235e+02 
       3.582720795817e-04       2.091107784405e+02 
       4.510378253218e-04       2.595527653010e+02 
       5.678229799780e-04       3.219086287196e+02 
       7.148467788950e-04       3.987726217180e+02 
       8.999387754901e-04       4.931347782577e+02 
       1.132955793523e-03       6.083351253856e+02 
       1.426306838906e-03       7.479576258244e+02 
       1.795613924515e-03       9.156227764548e+02 
       2.260543999343e-03       1.114565906803e+03 
       2.845856285252e-03       1.346912667463e+03 
       3.582720795817e-03       1.612736816667e+03 
       4.510378253218e-03       1.908857465490e+03 
       5.678229799780e-03       2.227386357458e+03 
       7.148467788950e-03       2.554213051079e+03 
       8.999387754901e-03       2.867726279739e+03 
       1.132955793523e-02       3.138013365917e+03 
       1.426306838906e-02       3.327287594006e+03 
       1.795613924514e-02       3.393026409304e+03 
       2.260543991403e-02       3.297024856834e+03 
       2.845848840578e-02       3.024629016763e+03 
       3.581499799739e-02       2.613061151042e+03 
       4.463134392397e-02       2.179813725809e+03 
       5.241246446719e-02       1.899032149678e+03 
       5.800460252731e-02       1.747108848668e+03 
       6.255938814732e-02       1.643407926498e+03 
       6.659966797228e-02       1.559951384072e+03 
       7.035372018098e-02       1.485721911870e+03 
       7.394036345076e-02       1.415599323122e+03 
       7.742999564053e-02       1.347118169838e+03 
       8.086844590169e-02       1.279260770973e+03 
       8.428778493479e-02       1.211898866074e+03 
       8.771180054533e-02       1.145472981627e+03 
       9.115901558676e-02       1.080766458962e+03 
       9.464446471230e-02       1.018721683231e+03 
       9.818079698288e-02       9.602813807288e+02 
       1.017789900804e-01       9.062527588316e+02 
       1.054488295486e-01       8.571975625846e+02 
       1.091992398823e-01       8.133526893912e+02 
       1.130385188232e-01       7.745852709703e+02 
       1.169745064231e-01       7.403856629678e+02 
       1.210147089206e-01       7.099020178786e+02 
       1.251663905567e-01       6.820207836683e+02 
       1.294366421582e-01       6.554945191719e+02 
       1.338324325976e-01       6.291119161632e+02 
       1.383606474708e-01       6.018907783790e+02 
       1.430281181756e-01       5.732587681252e+02 
       1.478416438056e-01       5.431741425602e+02 
       1.528080077608e-01       5.121418617785e+02 
       1.579339906342e-01       4.811019765981e+02 
       1.632263807117e-01       4.512048601987e+02 
       1.686919832752e-01       4.235257246381e+02 
       1.743376298056e-01       3.987929992766e+02 
       1.801701881239e-01       3.772024647606e+02 
       1.861965744734e-01       3.583677417932e+02 
       1.924237685211e-01       3.414287142060e+02 
       1.988588322430e-01       3.253055090432e+02 
       2.055089336464e-01       3.090407235395e+02 
       2.123813762769e-01       2.921202788803e+02 
       2.194836354619e-01       2.746380752232e+02 
       2.268234022520e-01       2.572126985678e+02 
       2.344086360600e-01       2.406784531778e+02 
       2.422476270539e-01       2.256927575088e+02 
       2.503490694648e-01       2.124477221237e+02 
       2.587221471288e-01       2.006196397064e+02 
       2.673766328131e-01       1.895752190049e+02 
       2.763230032014e-01       1.787271631679e+02 
       2.855725718682e-01       1.678412600165e+02 
       2.951376431757e-01       1.571073078095e+02 
       3.050316908391e-01       1.469335425748e+02 
       3.152695659807e-01       1.376213676567e+02 
       3.258677409132e-01       1.291603827900e+02 
       3.368445967719e-01       1.212806025765e+02 
       3.482207656201e-01       1.136950634253e+02 
       3.600195410072e-01       1.063165631803e+02 
       3.722673755064e-01       9.926454097583e+01 
       3.849944899893e-01       9.268338252959e+01 
       3.982356280439e-01       8.657617729706e+01 
       4.120310011282e-01       8.081973499045e+01 
       4.264274874804e-01       7.531197533986e+01 
       4.414801731701e-01       7.005888558552e+01 
       4.572543612652e-01       6.510832236775e+01 
       4.738282319202e-01       6.044977830488e+01 
       4.912964240239e-01       5.602524909059e+01 
       5.097749481076e-01       5.180654129809e+01 
       5.294080663484e-01       4.780014811191e+01 
       5.503781543938e-01       4.399287372834e+01 
       5.729202161645e-01       4.035363821123e+01 
       5.973439038208e-01       3.686757295050e+01 
       6.240681127523e-01       3.351998052334e+01 
       6.536775930487e-01       3.028575443826e+01 
       6.870201257992e-01       2.714266078212e+01 
       7.253830038712e-01       2.406236676308e+01 
       7.708354920253e-01       2.100961727284e+01 
       8.269457978562e-01       1.793890805755e+01 
       9.004047153419e-01       1.479069318803e+01 
       1.004869291879e+00       1.150173868911e+01 
       1.168561918643e+00       8.103594210988e+00 
       1.431395072061e+00       5.023077867658e+00 
       1.797688643706e+00       2.908212971366e+00 
       2.263058540637e+00       1.659074602820e+00 
       2.849021465333e+00       9.385903840956e-01 
       3.586705521162e+00       5.270381550147e-01 
       4.515394725214e+00       2.939437746071e-01 
       5.684545163853e+00       1.629323029773e-01 
       7.156418361266e+00       8.980576951506e-02 
       9.009396932428e+00       4.924490830937e-02 
       1.134215874317e+01       2.687571481014e-02 
