# Matter power spectrum P(k) at redshift z=0
# for k=1.9622e-07 to 12.3976 h/Mpc,
# number of wavenumbers equal to 140
#    1:k (h/Mpc)              2:P (Mpc/h)^3        
       1.962195434116e-07       1.811097069132e+00 
       2.470257694915e-07       2.244355903630e+00 
       3.109870185808e-07       2.781260874562e+00 
       3.915094604295e-07       3.446606677399e+00 
       4.928812086925e-07       4.271119504403e+00 
       6.205006786189e-07       5.292876002056e+00 
       7.811640723488e-07       6.559061674895e+00 
       9.834273014606e-07       8.128149939556e+00 
       1.238061620461e-06       1.007260245215e+01 
       1.558627235365e-06       1.248221540536e+01 
       1.962195434116e-06       1.546826630553e+01 
       2.470257694915e-06       1.916865269847e+01 
       3.109870185808e-06       2.375426007746e+01 
       3.915094604295e-06       2.943685289730e+01 
       4.928812086925e-06       3.647885282678e+01 
       6.205006786189e-06       4.520545522794e+01 
       7.811640723488e-06       5.601964230688e+01 
       9.834273014606e-06       6.942078405118e+01 
       1.238061620461e-05       8.602768166640e+01 
       1.558627235365e-05       1.066071092249e+02 
       1.962195434116e-05       1.321091550066e+02 
       2.470257694915e-05       1.637109621010e+02 
       3.109870185808e-05       2.028708244061e+02 
       3.915094604295e-05       2.513950111619e+02 
       4.928812086926e-05       3.115201612880e+02 
       6.205006786189e-05       3.860145747166e+02 
       7.811640723488e-05       4.783021483987e+02 
       9.834273014606e-05       5.926128804396e+02 
       1.238061620461e-04       7.341634384114e+02 
       1.558627235365e-04       9.093695917348e+02 
       1.962195434116e-04       1.126088207849e+03 
       2.470257694915e-04       1.393878329654e+03 
       3.109870185808e-04       1.724256782442e+03 
       3.915094604295e-04       2.130903619638e+03 
       4.928812086926e-04       2.629751448991e+03 
       6.205006786189e-04       3.238880129932e+03 
       7.811640723488e-04       3.978122824749e+03 
       9.834273014606e-04       4.868176241594e+03 
       1.238061620461e-03       5.928734260711e+03 
       1.558627235365e-03       7.175221971704e+03 
       1.962195434116e-03       8.614201935604e+03 
       2.470257694915e-03       1.023720171562e+04 
       3.109870185808e-03       1.201354555817e+04 
       3.915094604295e-03       1.388346036765e+04 
       4.928812086926e-03       1.575255832856e+04 
       6.205006786189e-03       1.749036919269e+04 
       7.811640723488e-03       1.893493188907e+04 
       9.834273014606e-03       1.990373919355e+04 
       1.238061620461e-02       2.021193155821e+04 
       1.558627235365e-02       1.969992324721e+04 
       1.962195433935e-02       1.827864137842e+04 
       2.470257276376e-02       1.600364571282e+04 
       3.109726327301e-02       1.316587501415e+04 
       3.904694325455e-02       1.033060249927e+04 
       4.743084955349e-02       8.292343643722e+03 
       5.360110756850e-02       7.253896077704e+03 
       5.834182360192e-02       6.616343536469e+03 
       6.241624481932e-02       6.132432651011e+03 
       6.613566618084e-02       5.720481102914e+03 
       6.965056857216e-02       5.347448063401e+03 
       7.304553044384e-02       4.998929059093e+03 
       7.637351166615e-02       4.669177489793e+03 
       7.967046615753e-02       4.356883106098e+03 
       8.296241082694e-02       4.062989786498e+03 
       8.626918696396e-02       3.789374213689e+03 
       8.960661422260e-02       3.537963397243e+03 
       9.298779791424e-02       3.310129410820e+03 
       9.642396054991e-02       3.106294952294e+03 
       9.992499150366e-02       2.925718648380e+03 
       1.034998220739e-01       2.766442051707e+03 
       1.071566882072e-01       2.625387632481e+03 
       1.109033185235e-01       2.498601658554e+03 
       1.147470712102e-01       2.381635899078e+03 
       1.186950350119e-01       2.270049322539e+03 
       1.227541044366e-01       2.159981882548e+03 
       1.269310360931e-01       2.048711665133e+03 
       1.312324910139e-01       1.935071873910e+03 
       1.356650664721e-01       1.819599460260e+03 
       1.402353199123e-01       1.704331979057e+03 
       1.449497870215e-01       1.592260320850e+03 
       1.498149955745e-01       1.486552963869e+03 
       1.548374764251e-01       1.389745926710e+03 
       1.600237728444e-01       1.303108839054e+03 
       1.653804492976e-01       1.226350190990e+03 
       1.709141006808e-01       1.157739878837e+03 
       1.766313629971e-01       1.094630377923e+03 
       1.825389264221e-01       1.034253012479e+03 
       1.886435516939e-01       9.745583206750e+02 
       1.949520907486e-01       9.148013554048e+02 
       2.014715125163e-01       8.556214111812e+02 
       2.082089347898e-01       7.985645974811e+02 
       2.151716630876e-01       7.452650329513e+02 
       2.223672374520e-01       6.966727698704e+02 
       2.298034881723e-01       6.526835232250e+02 
       2.374886014993e-01       6.123127109741e+02 
       2.454311965457e-01       5.742825840529e+02 
       2.536404147539e-01       5.376820234390e+02 
       2.621260235835e-01       5.023231811626e+02 
       2.708985364498e-01       4.686124187541e+02 
       2.799693514525e-01       4.370789357597e+02 
       2.893509121259e-01       4.079258891789e+02 
       2.990568943484e-01       3.809096619460e+02 
       3.091024247600e-01       3.555714013385e+02 
       3.195043376298e-01       3.315746189825e+02 
       3.302814792315e-01       3.088571053887e+02 
       3.414550716194e-01       2.875120246256e+02 
       3.530491515066e-01       2.675710637732e+02 
       3.650911051510e-01       2.489183489103e+02 
       3.776123273278e-01       2.313827445121e+02 
       3.906490425083e-01       2.148596282446e+02 
       4.042433406253e-01       1.993193673591e+02 
       4.184445003970e-01       1.847294218063e+02 
       4.333107034404e-01       1.710146615618e+02 
       4.489112877412e-01       1.580933035386e+02 
       4.653297584013e-01       1.459109794910e+02 
       4.826678821843e-01       1.344243007743e+02 
       5.010513667987e-01       1.235791091545e+02 
       5.206379140992e-01       1.133193478288e+02 
       5.416289280737e-01       1.035959219875e+02 
       5.642870277591e-01       9.435931965610e+01 
       5.889631154255e-01       8.555493679987e+01 
       6.161398343184e-01       7.712739201789e+01 
       6.465045120439e-01       6.901706097131e+01 
       6.810781744540e-01       6.115471780867e+01 
       7.214582530843e-01       5.346081415356e+01 
       7.703091905495e-01       4.583643453009e+01 
       8.324358648349e-01       3.816089442055e+01 
       9.172986167597e-01       3.029149345891e+01 
       1.044728034208e+00       2.216381102512e+01 
       1.251102765231e+00       1.430417136450e+01 
       1.561256080091e+00       8.290740653963e+00 
       1.964884291495e+00       4.669289348660e+00 
       2.473636842889e+00       2.608717726643e+00 
       3.114124271331e+00       1.447889056089e+00 
       3.920450180661e+00       7.987956422758e-01 
       4.935554358107e+00       4.382815700648e-01 
       6.213494802713e+00       2.392693873983e-01 
       7.822326503186e+00       1.300210148119e-01 
       9.847725614212e+00       7.035374501262e-02 
       1.239755202411e+01       3.791779535533e-02 
