# Matter power spectrum P(k) at redshift z=0.5
# for k=2.36491e-07 to 11.8648 h/Mpc,
# number of wavenumbers equal to 139
#    1:k (h/Mpc)              2:P (Mpc/h)^3        
       2.364912130759e-07       6.398907961400e-01 
       2.977247978073e-07       7.930779279942e-01 
       3.748133136809e-07       9.829374065853e-01 
       4.718620052717e-07       1.218248435217e+00 
       5.940390692967e-07       1.509891920626e+00 
       7.478508799362e-07       1.871353611501e+00 
       9.414884769843e-07       2.319347685731e+00 
       1.185263768587e-06       2.874589621244e+00 
       1.492158677953e-06       3.562754086828e+00 
       1.878516478104e-06       4.415662146409e+00 
       2.364912130759e-06       5.472752667134e+00 
       2.977247978073e-06       6.782905967022e+00 
       3.748133136809e-06       8.406704013847e+00 
       4.718620052717e-06       1.041923166316e+01 
       5.940390692967e-06       1.291354841624e+01 
       7.478508799362e-06       1.600499113714e+01 
       9.414884769843e-06       1.983650649909e+01 
       1.185263768587e-05       2.458525935574e+01 
       1.492158677953e-05       3.047082188023e+01 
       1.878516478104e-05       3.776532068859e+01 
       2.364912130759e-05       4.680600832080e+01 
       2.977247978073e-05       5.801083479983e+01 
       3.748133136809e-05       7.189772836781e+01 
       4.718620052717e-05       8.910845546476e+01 
       5.940390692967e-05       1.104381211558e+02 
       7.478508799362e-05       1.368715918443e+02 
       9.414884769843e-05       1.696283636724e+02 
       1.185263768587e-04       2.102176389430e+02 
       1.492158677953e-04       2.605055530319e+02 
       1.878516478104e-04       3.227965032528e+02 
       2.364912130759e-04       3.999301564508e+02 
       2.977247978073e-04       4.953945956716e+02 
       3.748133136809e-04       6.134536908351e+02 
       4.718620052717e-04       7.592826223663e+02 
       5.940390692967e-04       9.390995631698e+02 
       7.478508799362e-04       1.160275136413e+03 
       9.414884769843e-04       1.431395408612e+03 
       1.185263768587e-03       1.762238645661e+03 
       1.492158677953e-03       2.163567654370e+03 
       1.878516478104e-03       2.646552830815e+03 
       2.364912130759e-03       3.221686242343e+03 
       2.977247978073e-03       3.897062349691e+03 
       3.748133136809e-03       4.675803588939e+03 
       4.718620052717e-03       5.552643869243e+03 
       5.940390692967e-03       6.509509795945e+03 
       7.478508799362e-03       7.510340849470e+03 
       9.414884769843e-03       8.495869288868e+03 
       1.185263768587e-02       9.378908640605e+03 
       1.492158677953e-02       1.004265392367e+04 
       1.878516478101e-02       1.034739734595e+04 
       2.364912112120e-02       1.015762299025e+04 
       2.977233749004e-02       9.406213957095e+03 
       3.746159097969e-02       8.195987415151e+03 
       4.652790108820e-02       6.915038362010e+03 
       5.418181715869e-02       6.114617827058e+03 
       5.973085726043e-02       5.677281063834e+03 
       6.430518756057e-02       5.377335136001e+03 
       6.838863080441e-02       5.135847312897e+03 
       7.219670569334e-02       4.920100913223e+03 
       7.584341476688e-02       4.714103834516e+03 
       7.939708523235e-02       4.509704867569e+03 
       8.290258412978e-02       4.303243848175e+03 
       8.639152398471e-02       4.094001651076e+03 
       8.988748504101e-02       3.883302403313e+03 
       9.340891629190e-02       3.673856981091e+03 
       9.697085406231e-02       3.469192380190e+03 
       1.005859938942e-01       3.273118560983e+03 
       1.042653877275e-01       3.089230915715e+03 
       1.080189133076e-01       2.920470262676e+03 
       1.118555993958e-01       2.768763722518e+03 
       1.157838564347e-01       2.634769379133e+03 
       1.198116432983e-01       2.517741588697e+03 
       1.239465896480e-01       2.415533008128e+03 
       1.281960867108e-01       2.324752243839e+03 
       1.325673551327e-01       2.241099615530e+03 
       1.370674959041e-01       2.159891161477e+03 
       1.417035286398e-01       2.076746355659e+03 
       1.464824203590e-01       1.988351809491e+03 
       1.514111071639e-01       1.893142098596e+03 
       1.564965107098e-01       1.791696137242e+03 
       1.617455510335e-01       1.686674949628e+03 
       1.671651570809e-01       1.582239695011e+03 
       1.727622761369e-01       1.483053657841e+03 
       1.785438832706e-01       1.393118927750e+03 
       1.845169918488e-01       1.314757090612e+03 
       1.906886661380e-01       1.248001444722e+03 
       1.970660369931e-01       1.190570401783e+03 
       2.036563216135e-01       1.138484149977e+03 
       2.104668483397e-01       1.087253461597e+03 
       2.175050874582e-01       1.033361200207e+03 
       2.247786889845e-01       9.755159805022e+02 
       2.322955284100e-01       9.150813910989e+02 
       2.400637614369e-01       8.553701369966e+02 
       2.480918887888e-01       8.000666422063e+02 
       2.563888322958e-01       7.515287239512e+02 
       2.649640236214e-01       7.097814513646e+02 
       2.738275072443e-01       6.726680193599e+02 
       2.829900596515e-01       6.370938578707e+02 
       2.924633271777e-01       6.007519955002e+02 
       3.022599855640e-01       5.633397831476e+02 
       3.123939251605e-01       5.264561211412e+02 
       3.228804668316e-01       4.922445363970e+02 
       3.337366151101e-01       4.617941732524e+02 
       3.449813571311e-01       4.344744484425e+02 
       3.566360185048e-01       4.086350384202e+02 
       3.687246908314e-01       3.830374271851e+02 
       3.812747503517e-01       3.577649375684e+02 
       3.943174938141e-01       3.338150032468e+02 
       4.078889267882e-01       3.118827758411e+02 
       4.220307525667e-01       2.916584290368e+02 
       4.367916283029e-01       2.723231438720e+02 
       4.522287820059e-01       2.535298090259e+02 
       4.684101240792e-01       2.356179121130e+02 
       4.854170477969e-01       2.188986894205e+02 
       5.033482071706e-01       2.031500642305e+02 
       5.223247099827e-01       1.880241146379e+02 
       5.424974073336e-01       1.735427270674e+02 
       5.640573705448e-01       1.598235716791e+02 
       5.872513584408e-01       1.467198793149e+02 
       6.124053649441e-01       1.340971516662e+02 
       6.399617653355e-01       1.219671720697e+02 
       6.705403934675e-01       1.102325848827e+02 
       7.050439745206e-01       9.879239479728e+01 
       7.448508734363e-01       8.755976740873e+01 
       7.921920248999e-01       7.639160984961e+01 
       8.509468625798e-01       6.511734759890e+01 
       9.284595959133e-01       5.350721174607e+01 
       1.039831088385e+00       4.133590090155e+01 
       1.215896780424e+00       2.880202508219e+01 
       1.496243164517e+00       1.768903763051e+01 
       1.880496108929e+00       1.023598043459e+01 
       2.367344017733e+00       5.843968481606e+00 
       2.980309316760e+00       3.307646698266e+00 
       3.751987133757e+00       1.857590724997e+00 
       4.723471947412e+00       1.035897448465e+00 
       5.946498866493e+00       5.739805124315e-01 
       7.486198534234e+00       3.161811945577e-01 
       9.424565572483e+00       1.732403256966e-01 
       1.186482509432e+01       9.445510945651e-02 
