# Matter power spectrum P(k) at redshift z=0
# for k=1.8143e-07 to 11.4595 h/Mpc,
# number of wavenumbers equal to 140
#    1:k (h/Mpc)              2:P (Mpc/h)^3        
       1.814297207980e-07       3.059594441306e+00 
       2.284064859673e-07       3.791000684269e+00 
       2.875467294028e-07       4.697252023378e+00 
       3.619998847235e-07       5.820145758706e+00 
       4.557308539450e-07       7.211470970759e+00 
       5.737311529701e-07       8.935397086198e+00 
       7.222847280120e-07       1.107143343562e+01 
       9.093025986451e-07       1.371809629653e+01 
       1.144744148445e-06       1.699745254648e+01 
       1.441147498480e-06       2.106074946801e+01 
       1.814297207980e-06       2.609539033708e+01 
       2.284064859673e-06       3.233357746428e+01 
       2.875467294028e-06       4.006302122806e+01 
       3.619998847235e-06       4.964020881372e+01 
       4.557308539450e-06       6.150684427033e+01 
       5.737311529701e-06       7.621021739352e+01 
       7.222847280120e-06       9.442843945974e+01 
       9.093025986451e-06       1.170017069311e+02 
       1.144744148445e-05       1.449710295813e+02 
       1.441147498480e-05       1.796261985605e+02 
       1.814297207980e-05       2.225651856932e+02 
       2.284064859673e-05       2.757676723650e+02 
       2.875467294028e-05       3.416860184169e+02 
       3.619998847235e-05       4.233577081838e+02 
       4.557308539450e-05       5.245441499516e+02 
       5.737311529701e-05       6.499016247360e+02 
       7.222847280120e-05       8.051910902281e+02 
       9.093025986451e-05       9.975342326103e+02 
       1.144744148445e-04       1.235723187244e+03 
       1.441147498480e-04       1.530589886306e+03 
       1.814297207980e-04       1.895436583905e+03 
       2.284064859673e-04       2.346519534410e+03 
       2.875467294028e-04       2.903560433997e+03 
       3.619998847235e-04       3.590233956137e+03 
       4.557308539450e-04       4.434548838922e+03 
       5.737311529701e-04       5.469014132881e+03 
       7.222847280120e-04       6.730445585064e+03 
       9.093025986451e-04       8.259103950798e+03 
       1.144744148445e-03       1.009647462410e+04 
       1.441147498480e-03       1.228094713077e+04 
       1.814297207980e-03       1.484110841891e+04 
       2.284064859673e-03       1.778589887448e+04 
       2.875467294028e-03       2.109183298164e+04 
       3.619998847235e-03       2.468819326701e+04 
       4.557308539450e-03       2.844065192235e+04 
       5.737311529701e-03       3.213735845976e+04 
       7.222847280120e-03       3.548038170219e+04 
       9.093025986451e-03       3.808642940866e+04 
       1.144744148445e-02       3.950491797125e+04 
       1.441147498478e-02       3.927217442279e+04 
       1.814297197225e-02       3.704014282265e+04 
       2.284056030523e-02       3.282125195599e+04 
       2.874167768572e-02       2.730154099012e+04 
       3.574304758772e-02       2.207398713416e+04 
       4.174659706263e-02       1.899550827189e+04 
       4.608372164626e-02       1.738019990933e+04 
       4.964406739061e-02       1.628835308367e+04 
       5.281531419879e-02       1.541148572602e+04 
       5.576891850616e-02       1.462896933985e+04 
       5.859506154712e-02       1.388563976203e+04 
       6.134757428175e-02       1.315599346204e+04 
       6.406169716977e-02       1.243074119858e+04 
       6.676220014468e-02       1.171047619916e+04 
       6.946752269918e-02       1.100194062409e+04 
       7.219206739123e-02       1.031534192837e+04 
       7.494755554104e-02       9.662169870343e+03 
       7.774387128135e-02       9.053352910583e+03 
       8.058960974849e-02       8.497742494140e+03 
       8.349244573165e-02       8.000960700665e+03 
       8.645938882219e-02       7.564644311601e+03 
       8.949696423953e-02       7.186100554023e+03 
       9.261134346636e-02       6.858386618914e+03 
       9.580844005681e-02       6.570838792562e+03 
       9.909398069364e-02       6.310092953499e+03 
       1.024735582883e-01       6.061622994561e+03 
       1.059526718308e-01       5.811733237955e+03 
       1.095367563421e-01       5.549770608471e+03 
       1.132312053945e-01       5.270115644745e+03 
       1.170413880710e-01       4.973382956414e+03 
       1.209726618446e-01       4.666327200524e+03 
       1.250303825942e-01       4.360264380032e+03 
       1.292199128036e-01       4.068289575416e+03 
       1.335466288767e-01       3.801998090207e+03 
       1.380159284318e-01       3.568588675970e+03 
       1.426332383926e-01       3.369097642529e+03 
       1.474040246663e-01       3.198207354197e+03 
       1.523338041800e-01       3.045753931097e+03 
       1.574281600380e-01       2.899725564498e+03 
       1.626927605505e-01       2.750067100761e+03 
       1.681333828843e-01       2.592037972694e+03 
       1.737559420855e-01       2.427640339775e+03 
       1.795665262367e-01       2.264247164832e+03 
       1.855714385395e-01       2.110923879787e+03 
       1.917772471618e-01       1.974196845289e+03 
       1.981908437740e-01       1.855290832490e+03 
       2.048195118261e-01       1.750060218088e+03 
       2.116710058054e-01       1.651550448332e+03 
       2.187536429780e-01       1.553860459932e+03 
       2.260764094816e-01       1.455149164313e+03 
       2.336490831264e-01       1.357936166809e+03 
       2.414823759137e-01       1.266586625925e+03 
       2.495881001481e-01       1.183906913366e+03 
       2.579793631613e-01       1.109341880314e+03 
       2.666707971805e-01       1.039900167690e+03 
       2.756788328931e-01       9.727934747055e+02 
       2.850220279619e-01       9.074616629264e+02 
       2.947214654192e-01       8.453051883006e+02 
       3.048012418952e-01       7.876928718184e+02 
       3.152890726321e-01       7.344502461731e+02 
       3.262170500947e-01       6.842754172661e+02 
       3.376226071071e-01       6.362702026437e+02 
       3.495497560242e-01       5.906206041246e+02 
       3.620507059705e-01       5.477838968945e+02 
       3.751880064130e-01       5.075751620985e+02 
       3.890374368899e-01       4.694286823613e+02 
       4.036919762104e-01       4.331376457694e+02 
       4.192673693654e-01       3.987806376392e+02 
       4.359101209038e-01       3.662046190807e+02 
       4.538092828292e-01       3.351280687667e+02 
       4.732143780739e-01       3.054378993425e+02 
       4.944636334447e-01       2.769952295320e+02 
       5.180303219461e-01       2.495771093860e+02 
       5.446025989793e-01       2.229959570135e+02 
       5.752291099597e-01       1.970037097638e+02 
       6.116029471043e-01       1.713046884048e+02 
       6.566594248065e-01       1.455160692928e+02 
       7.159365229481e-01       1.191508321790e+02 
       8.007925200902e-01       9.172548455025e+01 
       9.345308927885e-01       6.367351767206e+01 
       1.148176377443e+00       3.885778764509e+01 
       1.442705024786e+00       2.227197166331e+01 
       1.816202126290e+00       1.259897121990e+01 
       2.286462786051e+00       7.071561165099e+00 
       2.878486104353e+00       3.941339309250e+00 
       3.623799304266e+00       2.182721256011e+00 
       4.562093031382e+00       1.201771089172e+00 
       5.743334848176e+00       6.581574275502e-01 
       7.230430188812e+00       3.586837736637e-01 
       9.102572302899e+00       1.945959746106e-01 
       1.145945958481e+01       1.051333986249e-01 
