# Matter power spectrum P(k) at redshift z=0.5
# for k=1.72234e-07 to 10.8814 h/Mpc,
# number of wavenumbers equal to 140
#    1:k (h/Mpc)              2:P (Mpc/h)^3        
       1.722342074823e-07       1.317310639099e+00 
       2.168300205797e-07       1.646486594309e+00 
       2.729728229476e-07       2.057918628971e+00 
       3.436524235379e-07       2.572161289289e+00 
       4.326327688166e-07       3.214905389673e+00 
       5.446523866380e-07       4.018261488118e+00 
       6.856767301330e-07       5.022364079704e+00 
       8.632158598403e-07       6.277376654088e+00 
       1.086724381817e-06       7.845997781035e+00 
       1.368104939885e-06       9.806593422904e+00 
       1.722342074823e-06       1.225711194822e+01 
       2.168300205797e-06       1.531997741926e+01 
       2.729728229476e-06       1.914820558269e+01 
       3.436524235379e-06       2.393304803868e+01 
       4.326327688166e-06       2.991354634697e+01 
       5.446523866380e-06       3.738847311633e+01 
       6.856767301330e-06       4.673125610763e+01 
       8.632158598403e-06       5.840862990211e+01 
       1.086724381817e-05       7.300394489206e+01 
       1.368104939885e-05       9.124629396449e+01 
       1.722342074823e-05       1.140469039946e+02 
       2.168300205797e-05       1.425445941493e+02 
       2.729728229476e-05       1.781625404643e+02 
       3.436524235379e-05       2.226791199636e+02 
       4.326327688166e-05       2.783162500026e+02 
       5.446523866380e-05       3.478493922545e+02 
       6.856767301330e-05       4.347442371089e+02 
       8.632158598403e-05       5.433259562079e+02 
       1.086724381817e-04       6.789876455723e+02 
       1.368104939885e-04       8.484448352483e+02 
       1.722342074823e-04       1.060042058016e+03 
       2.168300205797e-04       1.324114325043e+03 
       2.729728229476e-04       1.653399321480e+03 
       3.436524235379e-04       2.063483562492e+03 
       4.326327688166e-04       2.573247674391e+03 
       5.446523866380e-04       3.205256240910e+03 
       6.856767301330e-04       3.986017779220e+03 
       8.632158598403e-04       4.945984036344e+03 
       1.086724381817e-03       6.118964524949e+03 
       1.368104939885e-03       7.540383854540e+03 
       1.722342074823e-03       9.243961545599e+03 
       2.168300205797e-03       1.125634056884e+04 
       2.729728229476e-03       1.358903088626e+04 
       3.436524235379e-03       1.622747217651e+04 
       4.326327688166e-03       1.905908671121e+04 
       5.446523866380e-03       2.206051125924e+04 
       6.856767301330e-03       2.500388706597e+04 
       8.632158598403e-03       2.761056585867e+04 
       1.086724381817e-02       2.950937617114e+04 
       1.368104939816e-02       3.026794241850e+04 
       1.722341889082e-02       2.950135307526e+04 
       2.168228266805e-02       2.710396806921e+04 
       2.723990997946e-02       2.357592836071e+04 
       3.323376791117e-02       2.035832039009e+04 
       3.770910763426e-02       1.856602660185e+04 
       4.111404967149e-02       1.748195296381e+04 
       4.402372904276e-02       1.667733581427e+04 
       4.667161195143e-02       1.599618263784e+04 
       4.916917767697e-02       1.536840804891e+04 
       5.157853170125e-02       1.475860064259e+04 
       5.393831251618e-02       1.414906499985e+04 
       5.627462180206e-02       1.353288489902e+04 
       5.860627185685e-02       1.291043605064e+04 
       6.094756163676e-02       1.228717435990e+04 
       6.330985929789e-02       1.167189197446e+04 
       6.570255920149e-02       1.107513708319e+04 
       6.813368885472e-02       1.050772297773e+04 
       7.061030913663e-02       9.979350708987e+03 
       7.313878684390e-02       9.497413938215e+03 
       7.572498528919e-02       9.066059960695e+03 
       7.837440052491e-02       8.685569886871e+03 
       8.109226041828e-02       8.352112788805e+03 
       8.388359768344e-02       8.057925061934e+03 
       8.675330423903e-02       7.791977195007e+03 
       8.970617191535e-02       7.541179064468e+03 
       9.274692303164e-02       7.292114479402e+03 
       9.588023338295e-02       7.033164576146e+03 
       9.911074952769e-02       6.756679847965e+03 
       1.024431018357e-01       6.460677459201e+03 
       1.058819144698e-01       6.149485421440e+03 
       1.094318132824e-01       5.832931007987e+03 
       1.130974324864e-01       5.524082721733e+03 
       1.168834208754e-01       5.236041311232e+03 
       1.207944483223e-01       4.978622616926e+03 
       1.248352132492e-01       4.755818511753e+03 
       1.290104517441e-01       4.564710867017e+03 
       1.333249489874e-01       4.396199919054e+03 
       1.377835536405e-01       4.237573990838e+03 
       1.423911958454e-01       4.076477734833e+03 
       1.471529094811e-01       3.905153401797e+03 
       1.520738593291e-01       3.723242461590e+03 
       1.571593738133e-01       3.537618039695e+03 
       1.624149840116e-01       3.359011800602e+03 
       1.678464696906e-01       3.196945848675e+03 
       1.734599132022e-01       3.055435349820e+03 
       1.792617622084e-01       2.931489959941e+03 
       1.852589023918e-01       2.817088745686e+03 
       1.914587415663e-01       2.703705554416e+03 
       1.978693069612e-01       2.587009514942e+03 
       2.044993579261e-01       2.468845271850e+03 
       2.113585169406e-01       2.355092545030e+03 
       2.184574226466e-01       2.250987700309e+03 
       2.258079097355e-01       2.157422548513e+03 
       2.334232219866e-01       2.070856892990e+03 
       2.413182667227e-01       1.986639108854e+03 
       2.495099215915e-01       1.902826684495e+03 
       2.580174081878e-01       1.821133279969e+03 
       2.668627519984e-01       1.744349677835e+03 
       2.760713550977e-01       1.673164359094e+03 
       2.856727178773e-01       1.605740699588e+03 
       2.957013603058e-01       1.540126613678e+03 
       3.061980140733e-01       1.476302091446e+03 
       3.172111881841e-01       1.415385930120e+03 
       3.287992582352e-01       1.357536386060e+03 
       3.410333041339e-01       1.301741940574e+03 
       3.540010404826e-01       1.247415304498e+03 
       3.678123808701e-01       1.194816588439e+03 
       3.826075126197e-01       1.143861723222e+03 
       3.985689497903e-01       1.093951052353e+03 
       4.159401174105e-01       1.044818231589e+03 
       4.350551043074e-01       9.962182589843e+02 
       4.563884379471e-01       9.475762971306e+02 
       4.806427775742e-01       8.983339352161e+02 
       5.089131314028e-01       8.476401948506e+02 
       5.430170571448e-01       7.942547834538e+02 
       5.862131637348e-01       7.362162864685e+02 
       6.448788964121e-01       6.702963220844e+02 
       7.323632461612e-01       5.914526680417e+02 
       8.737576336039e-01       4.954625620347e+02 
       1.088595201340e+00       3.924238659375e+02 
       1.369887709758e+00       3.002790589432e+02 
       1.724580349900e+00       2.223431010220e+02 
       2.171118015725e+00       1.586582298457e+02 
       2.733275641998e+00       1.091121115587e+02 
       3.440990163149e+00       7.259605209372e+01 
       4.331949958122e+00       4.697783690337e+01 
       5.453601884900e+00       2.972646942580e+01 
       6.865677998709e+00       1.848260866662e+01 
       8.643376501771e+00       1.133766930879e+01 
       1.088136632178e+01       6.884178952829e+00 
