# Matter power spectrum P(k) at redshift z=2.5
# for k=1.78895e-07 to 11.299 h/Mpc,
# number of wavenumbers equal to 140
#    1:k (h/Mpc)              2:P (Mpc/h)^3        
       1.788952824921e-07       2.756784506110e-01 
       2.252158171794e-07       3.434731703637e-01 
       2.835299153851e-07       4.279399368819e-01 
       3.569430154822e-07       5.331787320858e-01 
       4.493646327530e-07       6.642978035521e-01 
       5.657165553343e-07       8.276616162875e-01 
       7.121949473830e-07       1.031199780998e+00 
       8.966003174119e-07       1.284791953081e+00 
       1.128752923813e-06       1.600747385247e+00 
       1.421015739425e-06       1.994402410658e+00 
       1.788952824921e-06       2.484864855021e+00 
       2.252158171794e-06       3.095941507905e+00 
       2.835299153851e-06       3.857293670697e+00 
       3.569430154822e-06       4.805876848050e+00 
       4.493646327530e-06       5.987734449414e+00 
       5.657165553343e-06       7.460232513690e+00 
       7.121949473830e-06       9.294843821054e+00 
       8.966003174119e-06       1.158061635428e+01 
       1.128752923813e-05       1.442849405840e+01 
       1.421015739425e-05       1.797669888780e+01 
       1.788952824921e-05       2.239743384538e+01 
       2.252158171794e-05       2.790522943973e+01 
       2.835299153851e-05       3.476733278921e+01 
       3.569430154822e-05       4.331663209372e+01 
       4.493646327530e-05       5.396772096815e+01 
       5.657165553343e-05       6.723683748216e+01 
       7.121949473830e-05       8.376655711616e+01 
       8.966003174119e-05       1.043562647016e+02 
       1.128752923813e-04       1.299995445455e+02 
       1.421015739425e-04       1.619296430993e+02 
       1.788952824921e-04       2.016739370333e+02 
       2.252158171794e-04       2.511176300347e+02 
       2.835299153851e-04       3.125752746766e+02 
       3.569430154822e-04       3.888655455773e+02 
       4.493646327530e-04       4.833793478235e+02 
       5.657165553343e-04       6.001239732607e+02 
       7.121949473830e-04       7.437191829207e+02 
       8.966003174119e-04       9.193202234328e+02 
       1.128752923813e-03       1.132445354473e+03 
       1.421015739425e-03       1.388649623348e+03 
       1.788952824921e-03       1.692863968986e+03 
       2.252158171794e-03       2.048227982894e+03 
       2.835299153851e-03       2.454576269730e+03 
       3.569430154822e-03       2.906525314266e+03 
       4.493646327530e-03       3.390975154458e+03 
       5.657165553343e-03       3.883227549562e+03 
       7.121949473830e-03       4.348846270593e+03 
       8.966003174119e-03       4.735441642830e+03 
       1.128752923813e-02       4.976349772556e+03 
       1.421015739421e-02       4.995475482382e+03 
       1.788952804226e-02       4.726888020035e+03 
       2.252143851497e-02       4.158142833389e+03 
       2.833465161207e-02       3.391512645023e+03 
       3.512546480419e-02       2.690279585911e+03 
       4.074091495163e-02       2.318220341530e+03 
       4.483448180945e-02       2.140091453684e+03 
       4.822782249865e-02       2.030108257610e+03 
       5.126594224111e-02       1.946914974151e+03 
       5.410404300675e-02       1.873337808530e+03 
       5.682485156917e-02       1.800859599003e+03 
       5.947822202497e-02       1.725096724771e+03 
       6.209702616999e-02       1.644145813980e+03 
       6.470450070764e-02       1.557831364566e+03 
       6.731802509881e-02       1.467255098201e+03 
       6.995122810438e-02       1.374431538104e+03 
       7.261523942835e-02       1.281936484968e+03 
       7.531947225386e-02       1.192555823082e+03 
       7.807213323064e-02       1.108949549268e+03 
       8.088056640789e-02       1.033358254251e+03 
       8.375149183546e-02       9.673755074238e+02 
       8.669117498639e-02       9.117966652736e+02 
       8.970554934130e-02       8.665422539010e+02 
       9.280030639734e-02       8.306478316334e+02 
       9.598096247982e-02       8.023164388021e+02 
       9.925290869533e-02       7.790482728036e+02 
       1.026214484287e-01       7.578770287964e+02 
       1.060918255286e-01       7.357407731218e+02 
       1.096692455002e-01       7.099770567249e+02 
       1.133588914702e-01       6.788644440541e+02 
       1.171659363282e-01       6.420591698628e+02 
       1.210955521998e-01       6.007509058648e+02 
       1.251529182503e-01       5.574213670115e+02 
       1.293432277140e-01       5.152316640473e+02 
       1.336716949751e-01       4.772150113663e+02 
       1.381435634880e-01       4.455219350940e+02 
       1.427641152994e-01       4.209157199775e+02 
       1.475386829136e-01       4.026046228820e+02 
       1.524726642377e-01       3.884278463432e+02 
       1.575715413311e-01       3.754085280065e+02 
       1.628409036836e-01       3.606505599002e+02 
       1.682864767465e-01       3.423724346665e+02 
       1.739141564560e-01       3.206279666754e+02 
       1.797300505146e-01       2.972507683157e+02 
       1.857405272469e-01       2.749510342639e+02 
       1.919522729328e-01       2.560277841018e+02 
       1.983723586466e-01       2.413637921405e+02 
       2.050083178189e-01       2.301319677152e+02 
       2.118682360009e-01       2.202946491498e+02 
       2.189608546714e-01       2.097139962424e+02 
       2.262956914120e-01       1.973657823343e+02 
       2.338831794247e-01       1.838742849032e+02 
       2.417348302200e-01       1.709099612610e+02 
       2.498634244390e-01       1.598960345404e+02 
       2.582832372723e-01       1.510278192571e+02 
       2.670103069376e-01       1.432847003116e+02 
       2.760627573644e-01       1.353680941836e+02 
       2.854611898777e-01       1.268066123411e+02 
       2.952291636741e-01       1.182277860624e+02 
       3.053937918494e-01       1.105418862635e+02 
       3.159864895613e-01       1.039525336016e+02 
       3.270439250142e-01       9.785737323123e+01 
       3.386092445235e-01       9.166500265392e+01 
       3.507336735028e-01       8.547970345206e+01 
       3.634786416167e-01       7.977490520356e+01 
       3.769186523109e-01       7.461703344964e+01 
       3.911452313535e-01       6.964519747602e+01 
       4.062724759263e-01       6.473192588678e+01 
       4.224450405746e-01       6.009227771560e+01 
       4.398499447857e-01       5.573462048887e+01 
       4.587345801536e-01       5.147788795687e+01 
       4.794351738031e-01       4.736119709784e+01 
       5.024236992443e-01       4.339599244614e+01 
       5.283890796341e-01       3.948918078370e+01 
       5.583861266898e-01       3.564249677642e+01 
       5.941279090644e-01       3.178275061540e+01 
       6.386057098982e-01       2.784951612183e+01 
       6.975088288061e-01       2.374224764763e+01 
       7.825738065860e-01       1.935000276313e+01 
       9.175889473913e-01       1.469337518449e+01 
       1.131507230271e+00       1.037983649933e+01 
       1.422488101796e+00       7.246217503316e+00 
       1.790771298495e+00       5.148057244405e+00 
       2.254447374721e+00       3.715048913153e+00 
       2.838181089532e+00       2.706928443005e+00 
       3.573058296886e+00       1.977364862522e+00 
       4.498213887771e+00       1.437316122435e+00 
       5.662915771001e+00       1.032208926938e+00 
       7.129188568963e+00       7.278233145119e-01 
       8.975116654940e+00       5.014969464888e-01 
       1.129900243072e+01       3.367219486905e-01 
