# Matter power spectrum P(k) at redshift z=1.5
# for k=1.72685e-07 to 10.9097 h/Mpc,
# number of wavenumbers equal to 140
#    1:k (h/Mpc)              2:P (Mpc/h)^3        
       1.726851854981e-07       6.102338248945e-01 
       2.173977682639e-07       7.582043577484e-01 
       2.736875749348e-07       9.420550359191e-01 
       3.445522429778e-07       1.170486137449e+00 
       4.337655743754e-07       1.454307597614e+00 
       5.460785043427e-07       1.806950562164e+00 
       6.874721059515e-07       2.245102981377e+00 
       8.654761040820e-07       2.789499323323e+00 
       1.089569860730e-06       3.465901775569e+00 
       1.371687185597e-06       4.306319366776e+00 
       1.726851854981e-06       5.350522692451e+00 
       2.173977682639e-06       6.647925918161e+00 
       2.736875749348e-06       8.259925100521e+00 
       3.445522429778e-06       1.026280343966e+01 
       4.337655743754e-06       1.275134086949e+01 
       5.460785043427e-06       1.584329865208e+01 
       6.874721059515e-06       1.968499088637e+01 
       8.654761040820e-06       2.445820601125e+01 
       1.089569860730e-05       3.038880463285e+01 
       1.371687185597e-05       3.775739830995e+01 
       1.726851854981e-05       4.691261002008e+01 
       2.173977682639e-05       5.828753492893e+01 
       2.736875749348e-05       7.242016282942e+01 
       3.445522429778e-05       8.997869404711e+01 
       4.337655743754e-05       1.117928789150e+02 
       5.460785043427e-05       1.388927301803e+02 
       6.874721059515e-05       1.725561792692e+02 
       8.654761040820e-05       2.143674207632e+02 
       1.089569860730e-04       2.662877146244e+02 
       1.371687185597e-04       3.307400849225e+02 
       1.726851854981e-04       4.107082850111e+02 
       2.173977682639e-04       5.098479272773e+02 
       2.736875749348e-04       6.326027928329e+02 
       3.445522429778e-04       7.843108917322e+02 
       4.337655743754e-04       9.712725873676e+02 
       5.460785043427e-04       1.200740277985e+03 
       6.874721059515e-04       1.480784890845e+03 
       8.654761040820e-04       1.820003249984e+03 
       1.089569860730e-03       2.227004788372e+03 
       1.371687185597e-03       2.709447687846e+03 
       1.726851854981e-03       3.272274788706e+03 
       2.173977682639e-03       3.915283269201e+03 
       2.736875749348e-03       4.630269663106e+03 
       3.445522429778e-03       5.397820035172e+03 
       4.337655743754e-03       6.183838950090e+03 
       5.460785043427e-03       6.935624331056e+03 
       6.874721059515e-03       7.585810587251e+03 
       8.654761040821e-03       8.045684245314e+03 
       1.089569860730e-02       8.213980538706e+03 
       1.371687185597e-02       7.988148233667e+03 
       1.726851852954e-02       7.295154506919e+03 
       2.173975177936e-02       6.153399637841e+03 
       2.736361342925e-02       4.754193407504e+03 
       3.421345792335e-02       3.496763008664e+03 
       4.062907356436e-02       2.810359292206e+03 
       4.521915831767e-02       2.531746378213e+03 
       4.889501261195e-02       2.384271082163e+03 
       5.212659272356e-02       2.282015846634e+03 
       5.511397156119e-02       2.193506985601e+03 
       5.795901968974e-02       2.104429660963e+03 
       6.072115472245e-02       2.008006221591e+03 
       6.343860887639e-02       1.901760364881e+03 
       6.613789243793e-02       1.786106818020e+03 
       6.883852155597e-02       1.663502870351e+03 
       7.155559657663e-02       1.537752982985e+03 
       7.430130734102e-02       1.413347243938e+03 
       7.708586105667e-02       1.294831251260e+03 
       7.991808001621e-02       1.186254724811e+03 
       8.280580084539e-02       1.090750622782e+03 
       8.575614929080e-02       1.010273611957e+03 
       8.877573407453e-02       9.454900518887e+02 
       9.187078642854e-02       8.957813899605e+02 
       9.504726214018e-02       8.593142193196e+02 
       9.831091708143e-02       8.331553616705e+02 
       1.016673635777e-01       8.134573163480e+02 
       1.051221126836e-01       7.957841054396e+02 
       1.086806059539e-01       7.756493851325e+02 
       1.123482393299e-01       7.492681844121e+02 
       1.161303811149e-01       7.143872793869e+02 
       1.200323855893e-01       6.709196260337e+02 
       1.240596035260e-01       6.210751657238e+02 
       1.282173906827e-01       5.688272833849e+02 
       1.325111152221e-01       5.188414169686e+02 
       1.369461649358e-01       4.752429462219e+02 
       1.415279550947e-01       4.406383284988e+02 
       1.462619377219e-01       4.156119986137e+02 
       1.511536130612e-01       3.986901452313e+02 
       1.562085440049e-01       3.866970025955e+02 
       1.614323742326e-01       3.755262779982e+02 
       1.668308508110e-01       3.613593715252e+02 
       1.724098520030e-01       3.420646179205e+02 
       1.781754210453e-01       3.180922884787e+02 
       1.841338066752e-01       2.921949846959e+02 
       1.902915112348e-01       2.680055328613e+02 
       1.966553472531e-01       2.483021540067e+02 
       2.032325035279e-01       2.338825646311e+02 
       2.100306218985e-01       2.234279847824e+02 
       2.170578861513e-01       2.142824153895e+02 
       2.243231248363e-01       2.038796637090e+02 
       2.318359302352e-01       1.911892668212e+02 
       2.396067963363e-01       1.772003485208e+02 
       2.476472794857e-01       1.639840744971e+02 
       2.559701864625e-01       1.530942710569e+02 
       2.645897961520e-01       1.445641671177e+02 
       2.735221228863e-01       1.371186162647e+02 
       2.827852320649e-01       1.293363229293e+02 
       2.923996221003e-01       1.208293443899e+02 
       3.023886914372e-01       1.123749938892e+02 
       3.127793159056e-01       1.049163736671e+02 
       3.236025708231e-01       9.857052321878e+01 
       3.348946453301e-01       9.267124421896e+01 
       3.466980154088e-01       8.666265064568e+01 
       3.590629700733e-01       8.070218193191e+01 
       3.720496274840e-01       7.524014750443e+01 
       3.857306428496e-01       7.029815808439e+01 
       4.001949127027e-01       6.553668921293e+01 
       4.155527465231e-01       6.086187357256e+01 
       4.319432542393e-01       5.646133048126e+01 
       4.495451766395e-01       5.232901112267e+01 
       4.685932418252e-01       4.831440737471e+01 
       4.894037282324e-01       4.444644631137e+01 
       5.124160409770e-01       4.073038495176e+01 
       5.382635677504e-01       3.709111738712e+01 
       5.679012713171e-01       3.352263388203e+01 
       6.028508354787e-01       2.996718442479e+01 
       6.457082207341e-01       2.637234697447e+01 
       7.012811420383e-01       2.265592251923e+01 
       7.792803101927e-01       1.871619506434e+01 
       8.999716281017e-01       1.450513078937e+01 
       1.095149396963e+00       1.037328946076e+01 
       1.373561400812e+00       7.171747013605e+00 
       1.729067760463e+00       5.017864787372e+00 
       2.176766517112e+00       3.559384314822e+00 
       2.740386683201e+00       2.544328399965e+00 
       3.449942433624e+00       1.819558798067e+00 
       4.343220198916e+00       1.292199224360e+00 
       5.467790277433e+00       9.051493430507e-01 
       6.883540126622e+00       6.219860408577e-01 
       8.665863588509e+00       4.178085647970e-01 
       1.090967588672e+01       2.739919644885e-01 
