# Matter power spectrum P(k) at redshift z=1.5
# for k=1.82938e-07 to 11.5544 h/Mpc,
# number of wavenumbers equal to 140
#    1:k (h/Mpc)              2:P (Mpc/h)^3        
       1.829383502921e-07       7.114169002372e-01 
       2.303057379744e-07       8.816052701087e-01 
       2.899377460180e-07       1.092506871482e+00 
       3.650099963003e-07       1.353861307543e+00 
       4.595203599014e-07       1.677738132850e+00 
       5.785018583167e-07       2.079094234385e+00 
       7.282906902050e-07       2.576464551781e+00 
       9.168636570722e-07       3.192818033418e+00 
       1.154262957039e-06       3.956618356783e+00 
       1.453130968509e-06       4.903138396167e+00 
       1.829383502921e-06       6.076089137008e+00 
       2.303057379744e-06       7.529638254234e+00 
       2.899377460180e-06       9.330911560453e+00 
       3.650099963003e-06       1.156309281646e+01 
       4.595203599014e-06       1.432926499770e+01 
       5.785018583167e-06       1.775717031041e+01 
       7.282906902050e-06       2.200510856273e+01 
       9.168636570722e-06       2.726924588538e+01 
       1.154262957039e-05       3.379267050348e+01 
       1.453130968509e-05       4.187661221022e+01 
       1.829383502921e-05       5.189434055558e+01 
       2.303057379744e-05       6.430837752654e+01 
       2.899377460180e-05       7.969180767601e+01 
       3.650099963003e-05       9.875464648143e+01 
       4.595203599014e-05       1.223764387870e+02 
       5.785018583167e-05       1.516465031332e+02 
       7.282906902050e-05       1.879135050048e+02 
       9.168636570722e-05       2.328463066777e+02 
       1.154262957039e-04       2.885082404346e+02 
       1.453130968509e-04       3.574469571361e+02 
       1.829383502921e-04       4.428015645588e+02 
       2.303057379744e-04       5.484274462616e+02 
       2.899377460180e-04       6.790362404826e+02 
       3.650099963003e-04       8.403430620216e+02 
       4.595203599014e-04       1.039204613606e+03 
       5.785018583167e-04       1.283721562067e+03 
       7.282906902050e-04       1.583270862160e+03 
       9.168636570722e-04       1.948430289009e+03 
       1.154262957039e-03       2.390729015482e+03 
       1.453130968509e-03       2.922031997864e+03 
       1.829383502921e-03       3.553222702819e+03 
       2.303057379744e-03       4.292129076391e+03 
       2.899377460180e-03       5.140594565886e+03 
       3.650099963003e-03       6.090523816474e+03 
       4.595203599014e-03       7.118447648659e+03 
       5.785018583167e-03       8.179131285825e+03 
       7.282906902050e-03       9.198320925796e+03 
       9.168636570722e-03       1.006546614327e+04 
       1.154262957039e-02       1.062976176829e+04 
       1.453130968505e-02       1.070909421463e+04 
       1.829383482614e-02       1.013312560906e+04 
       2.303043178358e-02       8.848601767418e+03 
       2.897542953047e-02       7.078343294445e+03 
       3.592751350847e-02       5.448414257983e+03 
       4.168900533373e-02       4.598656240305e+03 
       4.588640349372e-02       4.213109520594e+03 
       4.936374910211e-02       3.993349279790e+03 
       5.247610081278e-02       3.840898041636e+03 
       5.538301290799e-02       3.714089063055e+03 
       5.816946222350e-02       3.591317411046e+03 
       6.088662869981e-02       3.460467441925e+03 
       6.356824337300e-02       3.315178238732e+03 
       6.623814193282e-02       3.153267092730e+03 
       6.891414664686e-02       2.975864903346e+03 
       7.161023006058e-02       2.786726251693e+03 
       7.433780018931e-02       2.591510753092e+03 
       7.710650382059e-02       2.396985500156e+03 
       7.992474992377e-02       2.210183574060e+03 
       8.280006257249e-02       2.037598861291e+03 
       8.573932574672e-02       1.884505676313e+03 
       8.874895713770e-02       1.754465134732e+03 
       9.183503389123e-02       1.649034673857e+03 
       9.500338492944e-02       1.567652379095e+03 
       9.825965947564e-02       1.507649334404e+03 
       1.016093782868e-01       1.464374393828e+03 
       1.050579721101e-01       1.431482104137e+03 
       1.086108105905e-01       1.401498985142e+03 
       1.122732240045e-01       1.366777194182e+03 
       1.160505196348e-01       1.320821664557e+03 
       1.199479942200e-01       1.259749683246e+03 
       1.239709436668e-01       1.183419962309e+03 
       1.281246710486e-01       1.095714082211e+03 
       1.324144938038e-01       1.003683703219e+03 
       1.368457509842e-01       9.157311389724e+02 
       1.414238113583e-01       8.394194879647e+02 
       1.461540831487e-01       7.796220018139e+02 
       1.510420261667e-01       7.374528099249e+02 
       1.560931670949e-01       7.100484083907e+02 
       1.613131186610e-01       6.911585637469e+02 
       1.667076034455e-01       6.726671295475e+02 
       1.722824830622e-01       6.471068916838e+02 
       1.780437934719e-01       6.105537168318e+02 
       1.839977872094e-01       5.644305348100e+02 
       1.901509833635e-01       5.148488506892e+02 
       1.965102262295e-01       4.695801713124e+02 
       2.030827536900e-01       4.343735788992e+02 
       2.098762765674e-01       4.105354465967e+02 
       2.168990704608e-01       3.946172834427e+02 
       2.241600819502e-01       3.802049219418e+02 
       2.316690515453e-01       3.613759753330e+02 
       2.394366564205e-01       3.362619601672e+02 
       2.474746768492e-01       3.080760172484e+02 
       2.557961914135e-01       2.824345895548e+02 
       2.644158075956e-01       2.631033939033e+02 
       2.733499364030e-01       2.494972108116e+02 
       2.826171224237e-01       2.375327918813e+02 
       2.922384444328e-01       2.231987019936e+02 
       3.022380067862e-01       2.060727035983e+02 
       3.126435489484e-01       1.892737925442e+02 
       3.234872105514e-01       1.757864121185e+02 
       3.348065037835e-01       1.653097446186e+02 
       3.466455659282e-01       1.550379388667e+02 
       3.590567961187e-01       1.433471264297e+02 
       3.721030277669e-01       1.316605031029e+02 
       3.858604616328e-01       1.218534749540e+02 
       4.004227013397e-01       1.133175745264e+02 
       4.159064239787e-01       1.043915183893e+02 
       4.324595397636e-01       9.540887821049e+01 
       4.502732544688e-01       8.749269588967e+01 
       4.696004618052e-01       7.998001741199e+01 
       4.907848093790e-01       7.235485745610e+01 
       5.143085903324e-01       6.527981885573e+01 
       5.408756193644e-01       5.833177088325e+01 
       5.715631857116e-01       5.151707754632e+01 
       6.081202148266e-01       4.477214643415e+01 
       6.535992235608e-01       3.799537036327e+01 
       7.138030427928e-01       3.102963028315e+01 
       8.006982829499e-01       2.376699075204e+01 
       9.385604239827e-01       1.636263302434e+01 
       1.157112982910e+00       9.928651789252e+00 
       1.454637793927e+00       5.698682845869e+00 
       1.831243528054e+00       3.231427209701e+00 
       2.305398885448e+00       1.817870864509e+00 
       2.902325241152e+00       1.015354704212e+00 
       3.653810999378e+00       5.634273605433e-01 
       4.599875517010e+00       3.107923214040e-01 
       5.790900179454e+00       1.705031055747e-01 
       7.290311393078e+00       9.307123926949e-02 
       9.177958272638e+00       5.056931441673e-02 
       1.155436489781e+01       2.735840525860e-02 
