# Matter power spectrum P(k) at redshift z=1
# for k=2.29416e-07 to 11.5097 h/Mpc,
# number of wavenumbers equal to 139
#    1:k (h/Mpc)              2:P (Mpc/h)^3        
       2.294155176768e-07       3.576116664648e-01 
       2.888170250632e-07       4.439577873228e-01 
       3.635990922108e-07       5.511523681910e-01 
       4.577441368895e-07       6.842293152757e-01 
       5.762657260300e-07       8.494379822751e-01 
       7.254755664452e-07       1.054536642546e+00 
       9.133196262336e-07       1.309156820864e+00 
       1.149801286556e-06       1.625255593217e+00 
       1.447514058159e-06       2.017677094643e+00 
       1.822312231745e-06       2.504849603446e+00 
       2.294155176768e-06       3.109650934063e+00 
       2.888170250632e-06       3.860482776274e+00 
       3.635990922108e-06       4.792604424149e+00 
       4.577441368895e-06       5.949788516660e+00 
       5.762657260300e-06       7.386376514265e+00 
       7.254755664452e-06       9.169830395283e+00 
       9.133196262336e-06       1.138390029542e+01 
       1.149801286556e-05       1.413255665571e+01 
       1.447514058159e-05       1.754487115973e+01 
       1.822312231745e-05       2.178107491611e+01 
       2.294155176768e-05       2.704007692528e+01 
       2.888170250632e-05       3.356879301811e+01 
       3.635990922108e-05       4.167371769860e+01 
       4.577441368895e-05       5.173527117168e+01 
       5.762657260300e-05       6.422557346203e+01 
       7.254755664452e-05       7.973043743930e+01 
       9.133196262336e-05       9.897652967475e+01 
       1.149801286556e-04       1.228648108542e+02 
       1.447514058159e-04       1.525115080777e+02 
       1.822312231745e-04       1.892979297828e+02 
       2.294155176768e-04       2.349302941602e+02 
       2.888170250632e-04       2.915101959997e+02 
       3.635990922108e-04       3.616150585053e+02 
       4.577441368895e-04       4.483854981131e+02 
       5.762657260300e-04       5.556127359866e+02 
       7.254755664452e-04       6.878145500418e+02 
       9.133196262336e-04       8.502843105302e+02 
       1.149801286556e-03       1.049093021030e+03 
       1.447514058159e-03       1.291002284324e+03 
       1.822312231745e-03       1.583182953213e+03 
       2.294155176768e-03       1.932601292078e+03 
       2.888170250632e-03       2.345019221729e+03 
       3.635990922108e-03       2.823485094658e+03 
       4.577441368895e-03       3.366249190456e+03 
       5.762657260300e-03       3.957586340885e+03 
       7.254755664452e-03       4.586917908412e+03 
       9.133196262336e-03       5.214457688486e+03 
       1.149801286556e-02       5.786183167564e+03 
       1.447514058159e-02       6.227491737853e+03 
       1.822312231739e-02       6.446690512742e+03 
       2.294155144075e-02       6.352535291600e+03 
       2.888148808239e-02       5.897764553913e+03 
       3.633361985007e-02       5.149215639624e+03 
       4.499095208009e-02       4.369022327582e+03 
       5.207132758097e-02       3.898804607149e+03 
       5.724980569835e-02       3.640510029897e+03 
       6.155530300076e-02       3.463014469244e+03 
       6.541619520620e-02       3.320193649826e+03 
       6.902623546495e-02       3.192348350563e+03 
       7.248912865296e-02       3.069588244616e+03 
       7.586755710247e-02       2.946733932685e+03 
       7.920294387683e-02       2.821375386020e+03 
       8.252462275074e-02       2.692971362627e+03 
       8.585456577832e-02       2.562324644284e+03 
       8.921002479767e-02       2.431190557989e+03 
       9.260510348201e-02       2.301925437610e+03 
       9.605174148986e-02       2.177145741291e+03 
       9.956035653918e-02       2.059399450060e+03 
       1.031402778053e-01       1.950864873484e+03 
       1.068000468091e-01       1.853096236296e+03 
       1.105476311966e-01       1.766832792617e+03 
       1.143905794909e-01       1.691884144724e+03 
       1.183361347626e-01       1.627102185539e+03 
       1.223913190263e-01       1.570452085960e+03 
       1.265629963517e-01       1.519197660871e+03 
       1.308579202402e-01       1.470214895250e+03 
       1.352827692384e-01       1.420427982913e+03 
       1.398441737146e-01       1.367324880779e+03 
       1.445487360346e-01       1.309457899643e+03 
       1.494030459111e-01       1.246793565798e+03 
       1.544136923938e-01       1.180776888671e+03 
       1.595872737672e-01       1.114036218739e+03 
       1.649304064921e-01       1.049764815475e+03 
       1.704497342435e-01       9.909297026753e+02 
       1.761519380468e-01       9.395196745296e+02 
       1.820437484791e-01       8.960307669832e+02 
       1.881319608863e-01       8.593231739260e+02 
       1.944234545483e-01       8.269124373827e+02 
       2.009252167178e-01       7.956826436199e+02 
       2.076443724545e-01       7.628872822168e+02 
       2.145882211783e-01       7.271254698375e+02 
       2.217642808842e-01       6.888602784676e+02 
       2.291803409934e-01       6.501573507733e+02 
       2.368445248878e-01       6.136977534269e+02 
       2.447653632771e-01       5.815284764453e+02 
       2.529518797174e-01       5.541568967678e+02 
       2.614136898390e-01       5.304081480658e+02 
       2.701611161793e-01       5.081146567854e+02 
       2.792053209813e-01       4.853264965211e+02 
       2.885584599403e-01       4.613893389048e+02 
       2.982338607147e-01       4.371862502603e+02 
       3.082462311150e-01       4.143455560869e+02 
       3.186119033409e-01       3.939986242342e+02 
       3.293491225632e-01       3.760155994466e+02 
       3.404783907166e-01       3.592551749068e+02 
       3.520228798180e-01       3.425849161993e+02 
       3.640089338119e-01       3.257947179391e+02 
       3.764666843750e-01       3.095774784118e+02 
       3.894308150701e-01       2.946498043116e+02 
       4.029415208855e-01       2.809816338887e+02 
       4.170457283544e-01       2.679423591603e+02 
       4.317986679470e-01       2.551016600835e+02 
       4.472659298522e-01       2.426489245536e+02 
       4.635261941057e-01       2.309325884758e+02 
       4.806749189083e-01       2.198770277383e+02 
       4.988294187532e-01       2.091554587626e+02 
       5.181360055840e-01       1.987164331310e+02 
       5.387802734551e-01       1.887010426240e+02 
       5.610023175185e-01       1.790288546617e+02 
       5.851199660249e-01       1.695446967257e+02 
       6.115655434173e-01       1.602552168617e+02 
       6.409465390106e-01       1.510874888953e+02 
       6.741507866402e-01       1.419184544736e+02 
       7.125397295017e-01       1.326488722419e+02 
       7.583286004077e-01       1.230897412943e+02 
       8.153944431163e-01       1.129833592416e+02 
       8.911301908673e-01       1.019149715769e+02 
       1.000813030937e+00       8.926220467833e+01 
       1.175266131229e+00       7.444833655057e+01 
       1.450849610453e+00       5.859435199741e+01 
       1.824200353725e+00       4.472476960405e+01 
       2.296493259283e+00       3.347054204046e+01 
       2.891113596196e+00       2.443228880663e+01 
       3.639696374579e+00       1.731361864101e+01 
       4.582106257173e+00       1.187794814834e+01 
       5.768530006696e+00       7.888924329674e+00 
       7.262149014127e+00       5.086770237112e+00 
       9.142503938121e+00       3.198388240805e+00 
       1.150973053513e+01       1.970223001061e+00 
