# Matter power spectrum P(k) at redshift z=2.5
# for k=1.78183e-07 to 11.2544 h/Mpc,
# number of wavenumbers equal to 140
#    1:k (h/Mpc)              2:P (Mpc/h)^3        
       1.781826183557e-07       2.821326877138e-01 
       2.243186261880e-07       3.507384721397e-01 
       2.824004188469e-07       4.360270225019e-01 
       3.555210635876e-07       5.420550619916e-01 
       4.475745013785e-07       6.738657808427e-01 
       5.634629134566e-07       8.377287138167e-01 
       7.093577803540e-07       1.041437948307e+00 
       8.930285357416e-07       1.294682846690e+00 
       1.124256317102e-06       1.609508916003e+00 
       1.415354846970e-06       2.000890745208e+00 
       1.781826183557e-06       2.487444258728e+00 
       2.243186261880e-06       3.092312162907e+00 
       2.824004188469e-06       3.844264695855e+00 
       3.555210635876e-06       4.779068014577e+00 
       4.475745013785e-06       5.941185293452e+00 
       5.634629134566e-06       7.385891385531e+00 
       7.093577803540e-06       9.181901521130e+00 
       8.930285357416e-06       1.141463888953e+01 
       1.124256317102e-05       1.419029610568e+01 
       1.415354846970e-05       1.764088294966e+01 
       1.781826183557e-05       2.193049894462e+01 
       2.243186261880e-05       2.726312598819e+01 
       2.824004188469e-05       3.389230570537e+01 
       3.555210635876e-05       4.213314983011e+01 
       4.475745013785e-05       5.237723151577e+01 
       5.634629134566e-05       6.511101960966e+01 
       7.093577803540e-05       8.093864246862e+01 
       8.930285357416e-05       1.006098866277e+02 
       1.124256317102e-04       1.250544164981e+02 
       1.415354846970e-04       1.554231720300e+02 
       1.781826183557e-04       1.931376242063e+02 
       2.243186261880e-04       2.399467894504e+02 
       2.824004188469e-04       2.979901973831e+02 
       3.555210635876e-04       3.698617657297e+02 
       4.475745013785e-04       4.586641836220e+02 
       5.634629134566e-04       5.680362210736e+02 
       7.093577803540e-04       7.021291906578e+02 
       8.930285357416e-04       8.655093300130e+02 
       1.124256317102e-03       1.062967509492e+03 
       1.415354846970e-03       1.299183442164e+03 
       1.781826183557e-03       1.578070698560e+03 
       2.243186261880e-03       1.901648694796e+03 
       2.824004188469e-03       2.268636951372e+03 
       3.555210635876e-03       2.672746120611e+03 
       4.475745013785e-03       3.100505135162e+03 
       5.634629134566e-03       3.529098833004e+03 
       7.093577803540e-03       3.924361051873e+03 
       8.930285357416e-03       4.239386396131e+03 
       1.124256317102e-02       4.414963871154e+03 
       1.415354846969e-02       4.385157076361e+03 
       1.781826173480e-02       4.095093253040e+03 
       2.243177889455e-02       3.539563725666e+03 
       2.822759814533e-02       2.816356585979e+03 
       3.511074198308e-02       2.160134557034e+03 
       4.102819867754e-02       1.812646001017e+03 
       4.530082347760e-02       1.657373447626e+03 
       4.880577901836e-02       1.567379298376e+03 
       5.192654112784e-02       1.502120119707e+03 
       5.483250788097e-02       1.445361150553e+03 
       5.761269427849e-02       1.389208503959e+03 
       6.032019952371e-02       1.329642966390e+03 
       6.298976755485e-02       1.264935742106e+03 
       6.564580959766e-02       1.194944466472e+03 
       6.830649215486e-02       1.120695184274e+03 
       7.098600061601e-02       1.044044827730e+03 
       7.369587679804e-02       9.673544662946e+02 
       7.644585144742e-02       8.931636947731e+02 
       7.924438480117e-02       8.238827771385e+02 
       8.209903003296e-02       7.615294861845e+02 
       8.501668475984e-02       7.075327562464e+02 
       8.800376926286e-02       6.626116439629e+02 
       9.106635522625e-02       6.267230279427e+02 
       9.421026014720e-02       5.990640946676e+02 
       9.744111735199e-02       5.781196387779e+02 
       1.007644283160e-01       5.617637878188e+02 
       1.041856019275e-01       5.474449248683e+02 
       1.077099839998e-01       5.324864834708e+02 
       1.113428794596e-01       5.145063553008e+02 
       1.150895690572e-01       4.918935284969e+02 
       1.189553220547e-01       4.642112753008e+02 
       1.229454060906e-01       4.323639921319e+02 
       1.270650952531e-01       3.984153353018e+02 
       1.313196772767e-01       3.650701662445e+02 
       1.357144607141e-01       3.349746796347e+02 
       1.402547828871e-01       3.100577626596e+02 
       1.449460193920e-01       2.910918383018e+02 
       1.497935959221e-01       2.775410866506e+02 
       1.548030031529e-01       2.676940195545e+02 
       1.599798154314e-01       2.590862635650e+02 
       1.653297140066e-01       2.492172202552e+02 
       1.708585155381e-01       2.364244999908e+02 
       1.765722066346e-01       2.205521572041e+02 
       1.824769851976e-01       2.029928724182e+02 
       1.885793093968e-01       1.859895841545e+02 
       1.948859551859e-01       1.715569658877e+02 
       2.014040833906e-01       1.605967019312e+02 
       2.081413175895e-01       1.525882733185e+02 
       2.151058342612e-01       1.459302451152e+02 
       2.223064670350e-01       1.388060341937e+02 
       2.297528273570e-01       1.302075578243e+02 
       2.374554445288e-01       1.204830812678e+02 
       2.454259289234e-01       1.109534355006e+02 
       2.536771633070e-01       1.028730727570e+02 
       2.622235286800e-01       9.655309511772e+01 
       2.710811730344e-01       9.126057131561e+01 
       2.802683340771e-01       8.590965812152e+01 
       2.898057305753e-01       7.999265679126e+01 
       2.997170419134e-01       7.392482922957e+01 
       3.100295023200e-01       6.847070075546e+01 
       3.207746458951e-01       6.389978956431e+01 
       3.319892524258e-01       5.978595943314e+01 
       3.437165641667e-01       5.560525919157e+01 
       3.560078737092e-01       5.136295614068e+01 
       3.689246284126e-01       4.744231815173e+01 
       3.825412670502e-01       4.396416539232e+01 
       3.969491156154e-01       4.065802412247e+01 
       4.122618505376e-01       3.737386302070e+01 
       4.286233419367e-01       3.427331070367e+01 
       4.462192180666e-01       3.140504439383e+01 
       4.652944454106e-01       2.862226788542e+01 
       4.861810141301e-01       2.593674398487e+01 
       5.093433690168e-01       2.338279101603e+01 
       5.354566498949e-01       2.088639790273e+01 
       5.655493334369e-01       1.845602059527e+01 
       6.012812804043e-01       1.604917338009e+01 
       6.455287773254e-01       1.363700567126e+01 
       7.037154085782e-01       1.117042875973e+01 
       7.869601271485e-01       8.605138962542e+00 
       9.180919280204e-01       5.980666428496e+00 
       1.127679294606e+00       3.654845793604e+00 
       1.416892242059e+00       2.097161897469e+00 
       1.783705045452e+00       1.187777969227e+00 
       2.245551379806e+00       6.675792740606e-01 
       2.826981695394e+00       3.726327300508e-01 
       3.558959095009e+00       2.067017929407e-01 
       4.480464044243e+00       1.140080882572e-01 
       5.640570041927e+00       6.255597309820e-02 
       7.101056962787e+00       3.416096355144e-02 
       8.939701061050e+00       1.857296742118e-02 
       1.125441683960e+01       1.005680926155e-02 
