# Matter power spectrum P(k) at redshift z=0.5
# for k=1.72154e-07 to 10.8761 h/Mpc,
# number of wavenumbers equal to 140
#    1:k (h/Mpc)              2:P (Mpc/h)^3        
       1.721538087336e-07       1.186546159711e+00 
       2.167288045519e-07       1.488177169264e+00 
       2.728453995181e-07       1.866485570389e+00 
       3.434920069445e-07       2.340963464048e+00 
       4.324308162906e-07       2.936058021783e+00 
       5.443981434711e-07       3.682431109412e+00 
       6.853566569493e-07       4.618539116674e+00 
       8.628129115758e-07       5.792614391142e+00 
       1.086217100007e-06       7.265150365715e+00 
       1.367466309924e-06       9.112018417128e+00 
       1.721538087336e-06       1.142837703271e+01 
       2.167288045519e-06       1.433357468005e+01 
       2.728453995181e-06       1.797729894165e+01 
       3.434920069445e-06       2.254728862815e+01 
       4.324308162906e-06       2.827900602295e+01 
       5.443981434711e-06       3.546776718025e+01 
       6.853566569493e-06       4.448395442131e+01 
       8.628129115758e-06       5.579209314770e+01 
       1.086217100007e-05       6.997477247182e+01 
       1.367466309924e-05       8.776263547540e+01 
       1.721538087336e-05       1.100719708761e+02 
       2.167288045519e-05       1.380518164423e+02 
       2.728453995181e-05       1.731429483122e+02 
       3.434920069445e-05       2.171516908225e+02 
       4.324308162906e-05       2.723421422906e+02 
       5.443981434711e-05       3.415511575200e+02 
       6.853566569493e-05       4.283312009435e+02 
       8.628129115758e-05       5.371268371307e+02 
       1.086217100007e-04       6.734908425408e+02 
       1.367466309924e-04       8.443450685639e+02 
       1.721538087336e-04       1.058288098908e+03 
       2.167288045519e-04       1.325944506206e+03 
       2.728453995181e-04       1.660336517603e+03 
       3.434920069445e-04       2.077236076532e+03 
       4.324308162906e-04       2.595425834383e+03 
       5.443981434711e-04       3.236772856197e+03 
       6.853566569493e-04       4.026008091096e+03 
       8.628129115758e-04       4.990047483451e+03 
       1.086217100007e-03       6.156409696020e+03 
       1.367466309924e-03       7.549971016145e+03 
       1.721538087336e-03       9.187850527344e+03 
       2.167288045519e-03       1.107241043561e+04 
       2.728453995181e-03       1.318234185908e+04 
       3.434920069445e-03       1.546303958755e+04 
       4.324308162906e-03       1.781699995416e+04 
       5.443981434711e-03       2.006174688549e+04 
       6.853566569493e-03       2.205878721247e+04 
       8.628129115758e-03       2.354244916490e+04 
       1.086217100007e-02       2.424672668794e+04 
       1.367466309924e-02       2.391628330190e+04 
       1.721538085265e-02       2.237992920458e+04 
       2.167285502418e-02       1.968136907530e+04 
       2.727934300355e-02       1.623823645309e+04 
       3.410598609179e-02       1.292231925052e+04 
       4.049163452065e-02       1.083481648249e+04 
       4.506026610463e-02       9.780163912676e+03 
       4.872034740927e-02       9.091059529179e+03 
       5.193871749189e-02       8.546051504173e+03 
       5.491422775829e-02       8.065485593055e+03 
       5.774817667259e-02       7.615454929619e+03 
       6.049966886107e-02       7.181356073066e+03 
       6.320674502965e-02       6.758373013219e+03 
       6.589578803591e-02       6.347137281702e+03 
       6.858622345161e-02       5.951276308306e+03 
       7.129308365105e-02       5.575766255042e+03 
       7.402850506923e-02       5.225707729654e+03 
       7.680265125576e-02       4.905392359931e+03 
       7.962430756277e-02       4.617622611804e+03 
       8.250127840874e-02       4.363273818486e+03 
       8.544066072324e-02       4.141090931247e+03 
       8.844903686753e-02       3.947712933049e+03 
       9.153261350411e-02       3.777924110356e+03 
       9.469732316047e-02       3.625137250263e+03 
       9.794889940402e-02       3.482110382072e+03 
       1.012929329476e-01       3.341865326830e+03 
       1.047349137283e-01       3.198709327794e+03 
       1.082802625304e-01       3.049177376493e+03 
       1.119343547603e-01       2.892652107636e+03 
       1.157025383388e-01       2.731434618013e+03 
       1.195901472530e-01       2.570154964623e+03 
       1.236025120247e-01       2.414607299076e+03 
       1.277449681650e-01       2.270288582534e+03 
       1.320228635653e-01       2.141026113209e+03 
       1.364415656943e-01       2.028051947134e+03 
       1.410064694216e-01       1.929756830908e+03 
       1.457230062611e-01       1.842197739464e+03 
       1.505966558046e-01       1.760272468274e+03 
       1.556329601041e-01       1.679286697504e+03 
       1.608375417554e-01       1.596432158855e+03 
       1.662161264267e-01       1.511592146042e+03 
       1.717745705796e-01       1.427071213437e+03 
       1.775188951383e-01       1.346324461655e+03 
       1.834553258847e-01       1.272279913260e+03 
       1.895903414053e-01       1.206054540793e+03 
       1.959307294865e-01       1.146639026490e+03 
       2.024836529768e-01       1.091634995132e+03 
       2.092567263041e-01       1.038616857244e+03 
       2.162581040843e-01       9.863575079364e+02 
       2.234965835938e-01       9.352104230311e+02 
       2.309817233416e-01       8.864706286256e+02 
       2.387239805843e-01       8.412411489791e+02 
       2.467348714460e-01       7.996448354505e+02 
       2.550271583735e-01       7.608860557635e+02 
       2.636150710844e-01       7.239792397662e+02 
       2.725145690538e-01       6.884666735416e+02 
       2.817436561187e-01       6.545354742374e+02 
       2.913227612072e-01       6.225478584117e+02 
       3.012752038848e-01       5.925425887150e+02 
       3.116277699067e-01       5.641968069837e+02 
       3.224114310945e-01       5.371732193066e+02 
       3.336622568884e-01       5.113780074065e+02 
       3.454225838451e-01       4.868589790790e+02 
       3.577425373142e-01       4.635714231039e+02 
       3.706820416885e-01       4.413522255050e+02 
       3.843135205731e-01       4.200689128070e+02 
       3.987255907030e-01       3.996670798420e+02 
       4.140282194449e-01       3.800786344797e+02 
       4.303600926788e-01       3.611914309049e+02 
       4.478994173637e-01       3.429034377191e+02 
       4.668802375322e-01       3.251198616700e+02 
       4.876179369682e-01       3.077204686053e+02 
       5.105507228921e-01       2.905646988424e+02 
       5.363103349398e-01       2.734856006512e+02 
       5.658493964693e-01       2.562640862921e+02 
       6.006861497001e-01       2.386002355846e+02 
       6.434112834470e-01       2.200554874454e+02 
       6.988240434377e-01       1.999507210280e+02 
       7.766203544323e-01       1.772214967500e+02 
       8.970321490278e-01       1.505539161306e+02 
       1.091736348832e+00       1.205239397499e+02 
       1.369328151181e+00       9.266500611226e+01 
       1.723740853083e+00       6.999861527465e+01 
       2.170060356261e+00       5.185661276682e+01 
       2.731944126911e+00       3.750159315344e+01 
       3.439313884970e+00       2.638029086578e+01 
       4.329839648925e+00       1.801690499059e+01 
       5.450945163025e+00       1.195239565079e+01 
       6.862333384029e+00       7.721701572857e+00 
       8.639165881357e+00       4.875506623222e+00 
       1.087606546475e+01       3.020310124303e+00 
