# Matter power spectrum P(k) at redshift z=0
# for k=2.24281e-07 to 11.2521 h/Mpc,
# number of wavenumbers equal to 139
#    1:k (h/Mpc)              2:P (Mpc/h)^3        
       2.242810572252e-07       7.775835586302e-01 
       2.823531223249e-07       9.737715208934e-01 
       3.554615207942e-07       1.219458621571e+00 
       4.474995414428e-07       1.527133723889e+00 
       5.633685444886e-07       1.912436688999e+00 
       7.092389768622e-07       2.394953386882e+00 
       8.928789710067e-07       2.999211291817e+00 
       1.124068026257e-06       3.755926269946e+00 
       1.415117802840e-06       4.703563935020e+00 
       1.781527762678e-06       5.890294937730e+00 
       2.242810572252e-06       7.376443574316e+00 
       2.823531223249e-06       9.237554174090e+00 
       3.554615207942e-06       1.156823111794e+01 
       4.474995414428e-06       1.448694764514e+01 
       5.633685444886e-06       1.814206781134e+01 
       7.092389768622e-06       2.271938755715e+01 
       8.928789710067e-06       2.845157790159e+01 
       1.124068026257e-05       3.563000967253e+01 
       1.415117802840e-05       4.461955963096e+01 
       1.781527762678e-05       5.587714820105e+01 
       2.242810572252e-05       6.997494632669e+01 
       2.823531223249e-05       8.762942159751e+01 
       3.554615207942e-05       1.097376812635e+02 
       4.474995414428e-05       1.374229221748e+02 
       5.633685444886e-05       1.720912240446e+02 
       7.092389768622e-05       2.155024269081e+02 
       8.928789710067e-05       2.698584081201e+02 
       1.124068026257e-04       3.379126823164e+02 
       1.415117802840e-04       4.231057981648e+02 
       1.781527762678e-04       5.297313024394e+02 
       2.242810572252e-04       6.631367158501e+02 
       2.823531223249e-04       8.299624020487e+02 
       3.554615207942e-04       1.038417578009e+03 
       4.474995414428e-04       1.298586304816e+03 
       5.633685444886e-04       1.622747347510e+03 
       7.092389768622e-04       2.025681326655e+03 
       8.928789710067e-04       2.524920932507e+03 
       1.124068026257e-03       3.140844283792e+03 
       1.415117802840e-03       3.896390484810e+03 
       1.781527762678e-03       4.816116093930e+03 
       2.242810572252e-03       5.924336436610e+03 
       2.823531223249e-03       7.241860689853e+03 
       3.554615207942e-03       8.780969089523e+03 
       4.474995414428e-03       1.053843528221e+04 
       5.633685444886e-03       1.248608004268e+04 
       7.092389768622e-03       1.455919364551e+04 
       8.928789710067e-03       1.664392025406e+04 
       1.124068026257e-02       1.856472263512e+04 
       1.415117802840e-02       2.007717857496e+04 
       1.781527762673e-02       2.087846504925e+04 
       2.242810544803e-02       2.066329590207e+04 
       2.823512501960e-02       1.926519307032e+04 
       3.552245643607e-02       1.688721257346e+04 
       4.402286528095e-02       1.436791627823e+04 
       5.103096825046e-02       1.283321295694e+04 
       5.614419485822e-02       1.199246164847e+04 
       6.038620697042e-02       1.141421754451e+04 
       6.418578594864e-02       1.094658351999e+04 
       6.773610243096e-02       1.052503549974e+04 
       7.114023701233e-02       1.011740906707e+04 
       7.446035964747e-02       9.707104228773e+03 
       7.773748756108e-02       9.286705617794e+03 
       8.100062933074e-02       8.855011068970e+03 
       8.427149002407e-02       8.415278977473e+03 
       8.756709624875e-02       7.973899599968e+03 
       9.090135656064e-02       7.539190025525e+03 
       9.428603738787e-02       7.120225162342e+03 
       9.773139923683e-02       6.725714667111e+03 
       1.012466258494e-01       6.362982624207e+03 
       1.048401219871e-01       6.037113501239e+03 
       1.085197249117e-01       5.750320582879e+03 
       1.122928574206e-01       5.501578686173e+03 
       1.161666402253e-01       5.286558700064e+03 
       1.201479753736e-01       5.097911414806e+03 
       1.242436086244e-01       4.925959154576e+03 
       1.284601762700e-01       4.759840626910e+03 
       1.328042403318e-01       4.589078817179e+03 
       1.372823150227e-01       4.405397459311e+03 
       1.419008866844e-01       4.204429145610e+03 
       1.466664289501e-01       3.986828827982e+03 
       1.515854145790e-01       3.758335999385e+03 
       1.566643252112e-01       3.528574204602e+03 
       1.619096601603e-01       3.308774170714e+03 
       1.673279452799e-01       3.108986870353e+03 
       1.729257428878e-01       2.935531475170e+03 
       1.787096637007e-01       2.789345662807e+03 
       1.846863817106e-01       2.665679409121e+03 
       1.908626529208e-01       2.555331102538e+03 
       1.972453388515e-01       2.447342526724e+03 
       2.038414357180e-01       2.332591832413e+03 
       2.106581101918e-01       2.207086392855e+03 
       2.177027426666e-01       2.073425916659e+03 
       2.249829789900e-01       1.939460938370e+03 
       2.325067916827e-01       1.814570399660e+03 
       2.402825517760e-01       1.705323304774e+03 
       2.483191125560e-01       1.612615269304e+03 
       2.566259067405e-01       1.531607394006e+03 
       2.652130589425e-01       1.454529803291e+03 
       2.740915157272e-01       1.375039605886e+03 
       2.832731961798e-01       1.291695302998e+03 
       2.927711667110e-01       1.208230166055e+03 
       3.025998449019e-01       1.130359653816e+03 
       3.127752386135e-01       1.061491121688e+03 
       3.233152284629e-01       1.000520104274e+03 
       3.342399042810e-01       9.432290279993e+02 
       3.455719695318e-01       8.860174111811e+02 
       3.573372322471e-01       8.287210648432e+02 
       3.695652073043e-01       7.739817457420e+02 
       3.822898636137e-01       7.240149485603e+02 
       3.955505621149e-01       6.783128614523e+02 
       4.093932481748e-01       6.346351237934e+02 
       4.238719878088e-01       5.918011339959e+02 
       4.390509755388e-01       5.506889898608e+02 
       4.550071999625e-01       5.123706749228e+02 
       4.718340434945e-01       4.763874343639e+02 
       4.896462364574e-01       4.416923572773e+02 
       5.085868205350e-01       4.082887133189e+02 
       5.288371721570e-01       3.766317263705e+02 
       5.506318258338e-01       3.463803925135e+02 
       5.742810863339e-01       3.171162887644e+02 
       6.002067818262e-01       2.889332507664e+02 
       6.290012096537e-01       2.616123113854e+02 
       6.615292143272e-01       2.348820374505e+02 
       6.991155049906e-01       2.085603281626e+02 
       7.439125695104e-01       1.822865472128e+02 
       7.996813088697e-01       1.556457509300e+02 
       8.735797511993e-01       1.280653270413e+02 
       9.803812214389e-01       9.899058918186e+01 
       1.149993297818e+00       6.896768886562e+01 
       1.418516467441e+00       4.251505761177e+01 
       1.783372446953e+00       2.483336260174e+01 
       2.245090552851e+00       1.432298937792e+01 
       2.826401406495e+00       8.189959693754e+00 
       3.558228554502e+00       4.646827218291e+00 
       4.479544348234e+00       2.618021430749e+00 
       5.639412213250e+00       1.465576213566e+00 
       7.099599342843e+00       8.156542272361e-01 
       8.937866026263e+00       4.515237272950e-01 
       1.125210666767e+01       2.487254148263e-01 
