# Matter power spectrum P(k) at redshift z=0.5
# for k=2.3029e-07 to 11.5582 h/Mpc,
# number of wavenumbers equal to 139
#    1:k (h/Mpc)              2:P (Mpc/h)^3        
       2.302902042064e-07       5.277044402364e-01 
       2.899181901627e-07       6.571140427387e-01 
       3.649853769372e-07       8.182589194482e-01 
       4.594893659595e-07       1.018921550134e+00 
       5.784628392556e-07       1.268792921381e+00 
       7.282415681174e-07       1.579940551757e+00 
       9.168018160278e-07       1.967391291285e+00 
       1.154185103777e-06       2.449857041194e+00 
       1.453032957059e-06       3.050638441780e+00 
       1.829260113815e-06       3.798750171983e+00 
       2.302902042064e-06       4.730322203287e+00 
       2.899181901627e-06       5.890344680314e+00 
       3.649853769372e-06       7.334840688614e+00 
       4.594893659595e-06       9.133571829814e+00 
       5.784628392556e-06       1.137340724443e+01 
       7.282415681174e-06       1.416251873486e+01 
       9.168018160279e-06       1.763560449090e+01 
       1.154185103777e-05       2.196039349043e+01 
       1.453032957059e-05       2.734574430169e+01 
       1.829260113815e-05       3.405172863371e+01 
       2.302902042064e-05       4.240218503323e+01 
       2.899181901627e-05       5.280034594333e+01 
       3.649853769372e-05       6.574828671194e+01 
       4.594893659595e-05       8.187112385454e+01 
       5.784628392556e-05       1.019471075740e+02 
       7.282415681174e-05       1.269450153254e+02 
       9.168018160279e-05       1.580705611845e+02 
       1.154185103777e-04       1.968238837839e+02 
       1.453032957059e-04       2.450705420388e+02 
       1.829260113815e-04       3.051287773021e+02 
       2.302902042064e-04       3.798759801788e+02 
       2.899181901627e-04       4.728771231028e+02 
       3.649853769372e-04       5.885370612271e+02 
       4.594893659595e-04       7.322766677067e+02 
       5.784628392556e-04       9.107295148704e+02 
       7.282415681174e-04       1.131951477988e+03 
       9.168018160279e-04       1.405630013947e+03 
       1.154185103777e-03       1.743266381089e+03 
       1.453032957059e-03       2.158262928091e+03 
       1.829260113815e-03       2.665782050429e+03 
       2.302902042064e-03       3.282232910217e+03 
       2.899181901627e-03       4.024186125085e+03 
       3.649853769372e-03       4.906444246369e+03 
       4.594893659595e-03       5.913981611854e+03 
       5.784628392556e-03       7.084155704808e+03 
       7.282415681174e-03       8.382602622165e+03 
       9.168018160279e-03       9.765454939289e+03 
       1.154185103777e-02       1.115239041509e+04 
       1.453032957059e-02       1.241719171255e+04 
       1.829260113463e-02       1.338711771047e+04 
       2.302901359899e-02       1.386790794447e+04 
       2.898979817168e-02       1.371831069176e+04 
       3.636933050433e-02       1.298778318888e+04 
       4.391608678911e-02       1.212849093155e+04 
       4.939341377315e-02       1.157460335957e+04 
       5.365345024961e-02       1.119453513146e+04 
       5.733999382219e-02       1.089095266444e+04 
       6.071806535840e-02       1.062259097182e+04 
       6.391773832392e-02       1.036847630474e+04 
       6.701292072538e-02       1.011667704890e+04 
       7.005026039757e-02       9.860313731727e+03 
       7.306162112173e-02       9.595911726173e+03 
       7.607017502572e-02       9.322605572026e+03 
       7.909366766371e-02       9.041650607857e+03 
       8.214629830078e-02       8.756012237578e+03 
       8.523986623150e-02       8.469929920006e+03 
       8.838450260484e-02       8.188417458469e+03 
       9.158915563460e-02       7.916700496997e+03 
       9.486192250888e-02       7.659617044399e+03 
       9.821028236474e-02       7.421023803496e+03 
       1.016412633001e-01       7.203260274180e+03 
       1.051615641279e-01       7.006726146412e+03 
       1.087776442832e-01       6.829634142290e+03 
       1.124957908205e-01       6.668005613455e+03 
       1.163221686195e-01       6.515977423288e+03 
       1.202628581063e-01       6.366474914084e+03 
       1.243238836122e-01       6.212255470888e+03 
       1.285112347051e-01       6.047226463643e+03 
       1.328308823102e-01       5.867807289886e+03 
       1.372887910863e-01       5.673980188123e+03 
       1.418909292955e-01       5.469642980852e+03 
       1.466432772527e-01       5.261998174807e+03 
       1.515518353454e-01       5.059984632042e+03 
       1.566226325540e-01       4.872077841153e+03 
       1.618617363626e-01       4.704016788353e+03 
       1.672752649298e-01       4.557079763903e+03 
       1.728694023693e-01       4.427452768848e+03 
       1.786504179846e-01       4.307062759611e+03 
       1.846246902910e-01       4.185947475026e+03 
       1.907987366596e-01       4.055697171337e+03 
       1.971792494266e-01       3.912791464295e+03 
       2.037731393304e-01       3.760230066573e+03 
       2.105875871849e-01       3.606324521161e+03 
       2.176301047733e-01       3.460920115271e+03 
       2.249086060647e-01       3.330787827772e+03 
       2.324314900351e-01       3.216456008116e+03 
       2.402077366287e-01       3.112124069388e+03 
       2.482470177495e-01       3.008936462814e+03 
       2.565598256540e-01       2.900139657629e+03 
       2.651576217583e-01       2.785095460747e+03 
       2.740530097265e-01       2.669255570218e+03 
       2.832599378407e-01       2.559881595008e+03 
       2.927939371394e-01       2.460662204189e+03 
       3.026724038039e-01       2.369329100409e+03 
       3.129149369172e-01       2.280082932013e+03 
       3.235437463057e-01       2.188810089590e+03 
       3.345841500540e-01       2.096433296870e+03 
       3.460651880335e-01       2.007180556768e+03 
       3.580203872366e-01       1.923727705640e+03 
       3.704887281582e-01       1.844582990744e+03 
       3.835158809063e-01       1.766460569294e+03 
       3.971558083466e-01       1.688432885367e+03 
       4.114728765382e-01       1.612424224523e+03 
       4.265446785577e-01       1.539749236724e+03 
       4.424658811200e-01       1.469201917505e+03 
       4.593535697288e-01       1.399417937162e+03 
       4.773548436679e-01       1.330905464808e+03 
       4.966578836322e-01       1.264189456586e+03 
       5.175085511323e-01       1.198431017959e+03 
       5.402361241875e-01       1.133196893679e+03 
       5.652947649374e-01       1.068549060251e+03 
       5.933334177725e-01       1.003805745312e+03 
       6.253200557360e-01       9.384098674091e+02 
       6.627767944193e-01       8.715083312432e+02 
       7.082583495529e-01       8.018084802253e+02 
       7.664061296901e-01       7.273276046980e+02 
       8.464271661379e-01       6.449917803226e+02 
       9.676347663471e-01       5.506212097899e+02 
       1.164212715842e+00       4.431018187813e+02 
       1.455408251334e+00       3.357002597854e+02 
       1.831848169122e+00       2.425114703925e+02 
       2.306156876154e+00       1.669524118743e+02 
       2.903279490352e+00       1.102438539199e+02 
       3.655012327944e+00       7.053418862996e+01 
       4.601387900070e+00       4.411471307060e+01 
       5.792804156920e+00       2.715650120746e+01 
       7.292708358693e+00       1.653561180093e+01 
       9.180975873563e+00       9.993627794541e+00 
       1.155816383230e+01       6.009086968675e+00 
