# Matter power spectrum P(k) at redshift z=0
# for k=1.73567e-07 to 10.9643 h/Mpc,
# number of wavenumbers equal to 140
#    1:k (h/Mpc)              2:P (Mpc/h)^3        
       1.735668648265e-07       1.098216607526e+00 
       2.185077367755e-07       1.377964427587e+00 
       2.750849425003e-07       1.728972180019e+00 
       3.463114245155e-07       2.169391847577e+00 
       4.359802527172e-07       2.721999250771e+00 
       5.488666191862e-07       3.415371872508e+00 
       6.909821345790e-07       4.285366707315e+00 
       8.698949683173e-07       5.376974557829e+00 
       1.095132881207e-06       6.746646667618e+00 
       1.378690613442e-06       8.465214001116e+00 
       1.735668648265e-06       1.062155011987e+01 
       2.185077367755e-06       1.332716704348e+01 
       2.750849425003e-06       1.672198169543e+01 
       3.463114245155e-06       2.098155100730e+01 
       4.359802527172e-06       2.632614955976e+01 
       5.488666191862e-06       3.303215866900e+01 
       6.909821345790e-06       4.144635482891e+01 
       8.698949683173e-06       5.200383427852e+01 
       1.095132881207e-05       6.525049644818e+01 
       1.378690613442e-05       8.187124057078e+01 
       1.735668648265e-05       1.027253169559e+02 
       2.185077367755e-05       1.288906279127e+02 
       2.750849425003e-05       1.617192034918e+02 
       3.463114245155e-05       2.029065903050e+02 
       4.359802527172e-05       2.545784830597e+02 
       5.488666191862e-05       3.193985671152e+02 
       6.909821345790e-05       4.007021408518e+02 
       8.698949683173e-05       5.026604512837e+02 
       1.095132881207e-04       6.304803996262e+02 
       1.378690613442e-04       7.906425765483e+02 
       1.735668648265e-04       9.911761085674e+02 
       2.185077367755e-04       1.241959455827e+03 
       2.750849425003e-04       1.555019722206e+03 
       3.463114245155e-04       1.944778620908e+03 
       4.359802527172e-04       2.428166734106e+03 
       5.488666191862e-04       3.024512657164e+03 
       6.909821345790e-04       3.755102731848e+03 
       8.698949683173e-04       4.642194219410e+03 
       1.095132881207e-03       5.706949560652e+03 
       1.378690613442e-03       6.965767193293e+03 
       1.735668648265e-03       8.425027957897e+03 
       2.185077367755e-03       1.007401430898e+04 
       2.750849425003e-03       1.187706783953e+04 
       3.463114245155e-03       1.376659852892e+04 
       4.359802527172e-03       1.563655410702e+04 
       5.488666191862e-03       1.734081193016e+04 
       6.909821345790e-03       1.868653493024e+04 
       8.698949683173e-03       1.948222506070e+04 
       1.095132881207e-02       1.949799453480e+04 
       1.378690613442e-02       1.852837546590e+04 
       1.735668648226e-02       1.644726974380e+04 
       2.185077241024e-02       1.333693069921e+04 
       2.750791662016e-02       9.668418722952e+03 
       3.457850694734e-02       6.354480724403e+03 
       4.241371526147e-02       4.396172088346e+03 
       4.840531037250e-02       3.740059188020e+03 
       5.290444473911e-02       3.514315481181e+03 
       5.671813107631e-02       3.405862434858e+03 
       6.017350141319e-02       3.321412716909e+03 
       6.342415358375e-02       3.223323597003e+03 
       6.655461893315e-02       3.095102387166e+03 
       6.961702456759e-02       2.931665716158e+03 
       7.264634633778e-02       2.735526687228e+03 
       7.566765538290e-02       2.514520423156e+03 
       7.869992144656e-02       2.279839485582e+03 
       8.175816766140e-02       2.044101930910e+03 
       8.485476718134e-02       1.819534849876e+03 
       8.800026221888e-02       1.616481730048e+03 
       9.120390234754e-02       1.442423846983e+03 
       9.447401007371e-02       1.301589527647e+03 
       9.781823591495e-02       1.195064788363e+03 
       1.012437403750e-01       1.121186412193e+03 
       1.047573261025e-01       1.075961532342e+03 
       1.083655352044e-01       1.053353848043e+03 
       1.120747216223e-01       1.045480317170e+03 
       1.158911053105e-01       1.042977713369e+03 
       1.198208129246e-01       1.035882347187e+03 
       1.238699084093e-01       1.015200754834e+03 
       1.280444160002e-01       9.749363414525e+02 
       1.323503375737e-01       9.138646026279e+02 
       1.367936658944e-01       8.361549922586e+02 
       1.413803950500e-01       7.502890983253e+02 
       1.461165292001e-01       6.665419494030e+02 
       1.510080906509e-01       5.940615373407e+02 
       1.560611282043e-01       5.387086585279e+02 
       1.612817266848e-01       5.021935399166e+02 
       1.666760185200e-01       4.822360511802e+02 
       1.722501982337e-01       4.732346833531e+02 
       1.780105407017e-01       4.674005605860e+02 
       1.839634240074e-01       4.567582205542e+02 
       1.901153577378e-01       4.359456516692e+02 
       1.964730175608e-01       4.045352300205e+02 
       2.030432869455e-01       3.671167668380e+02 
       2.098333069245e-01       3.307342070858e+02 
       2.168505348624e-01       3.013251176839e+02 
       2.241028133057e-01       2.813082432262e+02 
       2.315984501486e-01       2.691294867694e+02 
       2.393463115871e-01       2.603947482586e+02 
       2.473559296595e-01       2.501500525584e+02 
       2.556376266219e-01       2.356060765992e+02 
       2.642026590068e-01       2.176374390527e+02 
       2.730633850143e-01       1.996822352251e+02 
       2.822334599423e-01       1.849388188798e+02 
       2.917280657644e-01       1.742248622942e+02 
       3.015641828162e-01       1.658624152200e+02 
       3.117609140322e-01       1.573285287238e+02 
       3.223398755067e-01       1.473828420801e+02 
       3.333256716891e-01       1.368615343991e+02 
       3.447464797720e-01       1.274150265296e+02 
       3.566347765472e-01       1.196941915129e+02 
       3.690282533638e-01       1.129187737107e+02 
       3.819709826100e-01       1.060370342016e+02 
       3.955149252072e-01       9.896032351386e+01 
       4.097219075326e-01       9.236021621238e+01 
       4.246662555281e-01       8.652648775957e+01 
       4.404383663089e-01       8.105041324709e+01 
       4.571496456043e-01       7.562368959887e+01 
       4.749394827934e-01       7.044873441139e+01 
       4.939853483156e-01       6.565525555959e+01 
       5.145178239992e-01       6.104475798732e+01 
       5.368437036913e-01       5.657257999885e+01 
       5.613828387535e-01       5.230460726031e+01 
       5.887295089326e-01       4.814973117774e+01 
       6.197599879462e-01       4.408242365593e+01 
       6.558327527053e-01       4.005753418003e+01 
       6.991882417287e-01       3.601038351173e+01 
       7.538122835900e-01       3.185483157757e+01 
       8.274421909588e-01       2.747377805588e+01 
       9.362249033424e-01       2.273154831222e+01 
       1.111361876827e+00       1.768378443792e+01 
       1.381164990186e+00       1.309572349447e+01 
       1.737738271081e+00       9.698442908459e+00 
       2.187669975724e+00       7.258001315849e+00 
       2.754113296224e+00       5.455361054410e+00 
       3.467223215568e+00       4.090806081764e+00 
       4.364975414442e+00       3.041520489686e+00 
       5.495178471097e+00       2.230053011595e+00 
       6.918019819609e+00       1.605232226158e+00 
       8.709270950201e+00       1.130550432028e+00 
       1.096432251741e+01       7.773343236496e-01 
