# Matter power spectrum P(k) at redshift z=0.5
# for k=2.07434e-07 to 10.4102 h/Mpc,
# number of wavenumbers equal to 139
#    1:k (h/Mpc)              2:P (Mpc/h)^3        
       2.074339284640e-07       8.031026069776e-01 
       2.611438438116e-07       1.003231212139e+00 
       3.287606211081e-07       1.253230727590e+00 
       4.138851003102e-07       1.565528699806e+00 
       5.210504703435e-07       1.955649548787e+00 
       6.559636779427e-07       2.442986289827e+00 
       8.258093433760e-07       3.051764564116e+00 
       1.039632367673e-06       3.812246898492e+00 
       1.308819606587e-06       4.762237056721e+00 
       1.647706262187e-06       5.948959260920e+00 
       2.074339284640e-06       7.431405690035e+00 
       2.611438438116e-06       9.283268939611e+00 
       3.287606211081e-06       1.159660518484e+01 
       4.138851003102e-06       1.448641008737e+01 
       5.210504703434e-06       1.809633480267e+01 
       6.559636779427e-06       2.260582601226e+01 
       8.258093433760e-06       2.823904447021e+01 
       1.039632367673e-05       3.527600453115e+01 
       1.308819606587e-05       4.406648669789e+01 
       1.647706262187e-05       5.504741134037e+01 
       2.074339284640e-05       6.876453049448e+01 
       2.611438438116e-05       8.589950265316e+01 
       3.287606211081e-05       1.073036699626e+02 
       4.138851003102e-05       1.340401645918e+02 
       5.210504703435e-05       1.674363340506e+02 
       6.559636779427e-05       2.091488879310e+02 
       8.258093433760e-05       2.612446040476e+02 
       1.039632367673e-04       3.262998217197e+02 
       1.308819606587e-04       4.075221421809e+02 
       1.647706262187e-04       5.088974467088e+02 
       2.074339284640e-04       6.353639711156e+02 
       2.611438438116e-04       7.930118045822e+02 
       3.287606211081e-04       9.892995105527e+02 
       4.138851003102e-04       1.233268446250e+03 
       5.210504703435e-04       1.535720463881e+03 
       6.559636779427e-04       1.909310820301e+03 
       8.258093433760e-04       2.368499573369e+03 
       1.039632367673e-03       2.929274074028e+03 
       1.308819606587e-03       3.608415240242e+03 
       1.647706262187e-03       4.421901052432e+03 
       2.074339284640e-03       5.382277548619e+03 
       2.611438438116e-03       6.494943839045e+03 
       3.287606211081e-03       7.753156149258e+03 
       4.138851003102e-03       9.132280916908e+03 
       5.210504703435e-03       1.058379090994e+04 
       6.559636779427e-03       1.199885576895e+04 
       8.258093433760e-03       1.332068413541e+04 
       1.039632367673e-02       1.439081310674e+04 
       1.308819606587e-02       1.505400345829e+04 
       1.647706262187e-02       1.515508255482e+04 
       2.074339282961e-02       1.457590788993e+04 
       2.611436162263e-02       1.329922187865e+04 
       3.287101951601e-02       1.148908926261e+04 
       4.113571616261e-02       9.552422488433e+03 
       4.902796019060e-02       8.154018767652e+03 
       5.467822775683e-02       7.373114320795e+03 
       5.917646906966e-02       6.838284239576e+03 
       6.311864372334e-02       6.410683035786e+03 
       6.675647381674e-02       6.039254056130e+03 
       7.021716798665e-02       5.701587831380e+03 
       7.357452677091e-02       5.387128714988e+03 
       7.687584929691e-02       5.091094954990e+03 
       8.015383140470e-02       4.811759937066e+03 
       8.343248199269e-02       4.549001513128e+03 
       8.673033797122e-02       4.303409806486e+03 
       9.006233593338e-02       4.075685569769e+03 
       9.344096323673e-02       3.866222166466e+03 
       9.687699813108e-02       3.674828561849e+03 
       1.003800033701e-01       3.500577361403e+03 
       1.039586655149e-01       3.341772348342e+03 
       1.076210340529e-01       3.196032605102e+03 
       1.113746933690e-01       3.060488487851e+03 
       1.152268884307e-01       2.932076334053e+03 
       1.191846177707e-01       2.807903228601e+03 
       1.232547028594e-01       2.685632250297e+03 
       1.274438401258e-01       2.563817580337e+03 
       1.317586400495e-01       2.442108281106e+03 
       1.362056565516e-01       2.321251683256e+03 
       1.407914091097e-01       2.202865857061e+03 
       1.455223994998e-01       2.089011434713e+03 
       1.504051247091e-01       1.981654097313e+03 
       1.554460873352e-01       1.882150311974e+03 
       1.606518046322e-01       1.790891984926e+03 
       1.660288172709e-01       1.707211064283e+03 
       1.715836988138e-01       1.629581417151e+03 
       1.773230668728e-01       1.556075081496e+03 
       1.832535968908e-01       1.484945290220e+03 
       1.893820394717e-01       1.415143596458e+03 
       1.957152421760e-01       1.346572701538e+03 
       2.022601766893e-01       1.279962811407e+03 
       2.090239722750e-01       1.216420572800e+03 
       2.160139564291e-01       1.156857708005e+03 
       2.232377036867e-01       1.101567162773e+03 
       2.307030935793e-01       1.050137568835e+03 
       2.384183788336e-01       1.001722120287e+03 
       2.463922650422e-01       9.554936377402e+02 
       2.546340032441e-01       9.110202192952e+02 
       2.631534971453e-01       8.683517338797e+02 
       2.719614271206e-01       8.277999784421e+02 
       2.810693936847e-01       7.895996501749e+02 
       2.904900838612e-01       7.536994655831e+02 
       3.002374648518e-01       7.198062448047e+02 
       3.103270107016e-01       6.875977124317e+02 
       3.207759693657e-01       6.569017672428e+02 
       3.316036798516e-01       6.277033452521e+02 
       3.428319521597e-01       6.000166618382e+02 
       3.544855268505e-01       5.737755137866e+02 
       3.665926366972e-01       5.488413643431e+02 
       3.791857006636e-01       5.250849129420e+02 
       3.923021913893e-01       5.024305711129e+02 
       4.059857329625e-01       4.808260627144e+02 
       4.202875083899e-01       4.601992640939e+02 
       4.352680895840e-01       4.404607032920e+02 
       4.509998530198e-01       4.215304818840e+02 
       4.675702216536e-01       4.033414769085e+02 
       4.850860957416e-01       3.858227041228e+02 
       5.036800326219e-01       3.688953295270e+02 
       5.235190643814e-01       3.524792964991e+02 
       5.448176083573e-01       3.364906972720e+02 
       5.678569362682e-01       3.208351416582e+02 
       5.930155499962e-01       3.054035453486e+02 
       6.208184870313e-01       2.900675560283e+02 
       6.520211516028e-01       2.746647486131e+02 
       6.877598547239e-01       2.589821510266e+02 
       7.298401131093e-01       2.427198513103e+02 
       7.813313691604e-01       2.254312982885e+02 
       8.478951019422e-01       2.064046826213e+02 
       9.409245730715e-01       1.844804648474e+02 
       1.084245343296e+00       1.580665479219e+02 
       1.316350594940e+00       1.270990520111e+02 
       1.650075137311e+00       9.705031846744e+01 
       2.077108522216e+00       7.199680762927e+01 
       2.614923377777e+00       5.185924969831e+01 
       3.291993488883e+00       3.615748422822e+01 
       4.144374258616e+00       2.439494239744e+01 
       5.217458070157e+00       1.596875620232e+01 
       6.568390549492e+00       1.018472773418e+01 
       8.269113777344e+00       6.357977148012e+00 
       1.041019746732e+01       3.901659200417e+00 
