# Matter power spectrum P(k) at redshift z=2
# for k=1.74953e-07 to 11.0522 h/Mpc,
# number of wavenumbers equal to 140
#    1:k (h/Mpc)              2:P (Mpc/h)^3        
       1.749530610417e-07       3.578509289601e-01 
       2.202528544166e-07       4.475196903626e-01 
       2.772819154453e-07       5.596572677568e-01 
       3.490772495851e-07       6.998938011980e-01 
       4.394622201818e-07       8.752702067210e-01 
       5.532501565104e-07       1.094591682637e+00 
       6.965006811100e-07       1.368869794982e+00 
       8.768424067814e-07       1.711875338845e+00 
       1.103879188036e-06       2.140829731693e+00 
       1.389701561369e-06       2.677269650930e+00 
       1.749530610417e-06       3.348128323894e+00 
       2.202528544166e-06       4.187087754209e+00 
       2.772819154453e-06       5.236269764371e+00 
       3.490772495851e-06       6.548350738398e+00 
       4.394622201818e-06       8.189206192298e+00 
       5.532501565104e-06       1.024121787342e+01 
       6.965006811100e-06       1.280740926062e+01 
       8.768424067814e-06       1.601661674521e+01 
       1.103879188036e-05       2.002995552864e+01 
       1.389701561369e-05       2.504890348181e+01 
       1.749530610417e-05       3.132540635738e+01 
       2.202528544166e-05       3.917450652842e+01 
       2.772819154453e-05       4.899011926338e+01 
       3.490772495851e-05       6.126472856472e+01 
       4.394622201818e-05       7.661395191236e+01 
       5.532501565104e-05       9.580712893529e+01 
       6.965006811100e-05       1.198053154060e+02 
       8.768424067814e-05       1.498082862041e+02 
       1.103879188036e-04       1.873123113573e+02 
       1.389701561369e-04       2.341804455456e+02 
       1.749530610417e-04       2.927266238422e+02 
       2.202528544166e-04       3.658135461573e+02 
       2.772819154453e-04       4.569614399793e+02 
       3.490772495851e-04       5.704593333115e+02 
       4.394622201818e-04       7.114616732558e+02 
       5.532501565104e-04       8.860419629840e+02 
       6.965006811100e-04       1.101166812608e+03 
       8.768424067814e-04       1.364555739549e+03 
       1.103879188036e-03       1.684387855259e+03 
       1.389701561369e-03       2.068723644916e+03 
       1.749530610417e-03       2.524326532373e+03 
       2.202528544166e-03       3.054754640880e+03 
       2.772819154453e-03       3.658008069416e+03 
       3.490772495851e-03       4.323560679556e+03 
       4.394622201818e-03       5.028573209437e+03 
       5.532501565104e-03       5.733012446942e+03 
       6.965006811100e-03       6.380162292050e+03 
       8.768424067814e-03       6.887984496030e+03 
       1.103879188036e-02       7.152745194124e+03 
       1.389701561369e-02       7.056946215046e+03 
       1.749530607196e-02       6.500262284831e+03 
       2.202524988872e-02       5.470583388371e+03 
       2.772153243077e-02       4.146619104288e+03 
       3.461853074034e-02       2.952499622547e+03 
       4.092462272866e-02       2.334459046159e+03 
       4.543962075783e-02       2.103944118781e+03 
       4.908088597744e-02       1.999069431190e+03 
       5.229401324543e-02       1.938987302833e+03 
       5.527061849212e-02       1.892526647727e+03 
       5.810915454913e-02       1.844258186159e+03 
       6.086741723244e-02       1.785787234735e+03 
       6.358277381872e-02       1.712963388778e+03 
       6.628123235673e-02       1.624791150453e+03 
       6.898199826117e-02       1.522825172675e+03 
       7.169997010891e-02       1.410623974562e+03 
       7.444720175239e-02       1.293120766172e+03 
       7.723380606477e-02       1.175905173574e+03 
       8.006853843403e-02       1.064489179260e+03 
       8.295918723754e-02       9.636612706442e+02 
       8.591284300610e-02       8.770207108278e+02 
       8.893608855165e-02       8.067330240944e+02 
       9.203513595825e-02       7.534823852071e+02 
       9.521592684649e-02       7.165407003342e+02 
       9.848420662663e-02       6.938633055578e+02 
       1.018455799356e-01       6.821663554137e+02 
       1.053055522213e-01       6.770333103689e+02 
       1.088695609964e-01       6.731897641742e+02 
       1.125429993344e-01       6.651094143993e+02 
       1.163312335567e-01       6.480083733979e+02 
       1.202396166355e-01       6.190459943446e+02 
       1.242734985657e-01       5.782902954317e+02 
       1.284382347694e-01       5.289244368996e+02 
       1.327391934813e-01       4.764300184586e+02 
       1.371817629850e-01       4.269963107876e+02 
       1.417713595220e-01       3.858206704492e+02 
       1.465134366683e-01       3.559374515736e+02 
       1.514134969489e-01       3.377761986883e+02 
       1.564771064549e-01       3.292303366542e+02 
       1.617099132138e-01       3.260292866816e+02 
       1.671176700627e-01       3.225829664835e+02 
       1.727062627728e-01       3.136245983800e+02 
       1.784817441850e-01       2.963807362424e+02 
       1.844503751400e-01       2.720205114027e+02 
       1.906186730329e-01       2.450815327907e+02 
       1.969934688998e-01       2.210345638980e+02 
       2.035819740642e-01       2.036497271274e+02 
       2.103918575489e-01       1.936110065056e+02 
       2.174313357083e-01       1.885459887468e+02 
       2.247092758854e-01       1.841698793119e+02 
       2.322353163608e-01       1.764861354596e+02 
       2.400200054920e-01       1.642613200861e+02 
       2.480749637636e-01       1.497658599792e+02 
       2.564130735673e-01       1.367977686364e+02 
       2.650487029783e-01       1.277755627821e+02 
       2.739979717235e-01       1.222683719161e+02 
       2.832790701181e-01       1.176415765595e+02 
       2.929126452468e-01       1.113092092530e+02 
       3.029222734498e-01       1.030105401803e+02 
       3.133350448112e-01       9.476238966381e+01 
       3.241822946854e-01       8.845142755807e+01 
       3.355005306380e-01       8.390144788033e+01 
       3.473326225567e-01       7.939546319215e+01 
       3.597293523735e-01       7.392051852540e+01 
       3.727514631209e-01       6.832156160486e+01 
       3.864724138209e-01       6.374180799680e+01 
       4.009821521961e-01       5.986841469293e+01 
       4.163923883408e-01       5.572865187405e+01 
       4.328441384980e-01       5.146601728434e+01 
       4.505188021349e-01       4.773868406431e+01 
       4.696549214391e-01       4.423130259321e+01 
       4.905744296227e-01       4.061409452152e+01 
       5.137254473063e-01       3.724160812017e+01 
       5.397554296624e-01       3.393850676424e+01 
       5.696433366615e-01       3.065584158229e+01 
       6.049545941861e-01       2.740416032393e+01 
       6.483713549513e-01       2.410243939271e+01 
       7.048859657707e-01       2.067501952623e+01 
       7.846263398895e-01       1.703079814058e+01 
       9.086597140286e-01       1.313426963725e+01 
       1.108764300718e+00       9.341582185303e+00 
       1.391475237423e+00       6.439685090794e+00 
       1.751651737464e+00       4.491933735997e+00 
       2.205198301780e+00       3.173903152285e+00 
       2.776180179696e+00       2.258315151016e+00 
       3.495003775938e+00       1.606621039328e+00 
       4.399949067845e+00       1.134504350374e+00 
       5.539207692110e+00       7.899224751433e-01 
       6.973449324803e+00       5.394888530231e-01 
       8.779052562854e+00       3.602338751133e-01 
       1.105217236285e+01       2.349383468492e-01 
