# Matter power spectrum P(k) at redshift z=2
# for k=2.12519e-07 to 10.6631 h/Mpc,
# number of wavenumbers equal to 139
#    1:k (h/Mpc)              2:P (Mpc/h)^3        
       2.125194555907e-07       2.375640462227e-01 
       2.675461431437e-07       2.947207497674e-01 
       3.368206384312e-07       3.656290658759e-01 
       4.240320609378e-07       4.535975628423e-01 
       5.338247369300e-07       5.627308331790e-01 
       6.720455267655e-07       6.981210134866e-01 
       8.460551915277e-07       8.660853821325e-01 
       1.065120380395e-06       1.074461121713e+00 
       1.340907113499e-06       1.332970999262e+00 
       1.688102040039e-06       1.653677027309e+00 
       2.125194555907e-06       2.051543270345e+00 
       2.675461431437e-06       2.545134057612e+00 
       3.368206384312e-06       3.157480175987e+00 
       4.240320609378e-06       3.917153452699e+00 
       5.338247369300e-06       4.859599850678e+00 
       6.720455267655e-06       6.028793257032e+00 
       8.460551915277e-06       7.479287066875e+00 
       1.065120380395e-05       9.278759185636e+00 
       1.340907113499e-05       1.151116899427e+01 
       1.688102040039e-05       1.428067313882e+01 
       2.125194555907e-05       1.771648207270e+01 
       2.675461431437e-05       2.197888230365e+01 
       3.368206384312e-05       2.726670220434e+01 
       4.240320609378e-05       3.382656350228e+01 
       5.338247369300e-05       4.196433792212e+01 
       6.720455267655e-05       5.205931951656e+01 
       8.460551915277e-05       6.458172714840e+01 
       1.065120380395e-04       8.011426186749e+01 
       1.340907113499e-04       9.937854647434e+01 
       1.688102040039e-04       1.232673346892e+02 
       2.125194555907e-04       1.528833282521e+02 
       2.675461431437e-04       1.895851550290e+02 
       3.368206384312e-04       2.350403245753e+02 
       4.240320609378e-04       2.912834741597e+02 
       5.338247369300e-04       3.607756185993e+02 
       6.720455267655e-04       4.464564298678e+02 
       8.460551915277e-04       5.517777997580e+02 
       1.065120380395e-03       6.807048556706e+02 
       1.340907113499e-03       8.376668581333e+02 
       1.688102040039e-03       1.027413467548e+03 
       2.125194555907e-03       1.254668130194e+03 
       2.675461431437e-03       1.523478930617e+03 
       3.368206384312e-03       1.836283148992e+03 
       4.240320609378e-03       2.192563728543e+03 
       5.338247369300e-03       2.584759021734e+03 
       6.720455267655e-03       3.003742144948e+03 
       8.460551915277e-03       3.425440175161e+03 
       1.065120380395e-02       3.814455145024e+03 
       1.340907113499e-02       4.120677305013e+03 
       1.688102040016e-02       4.281261187708e+03 
       2.125194472728e-02       4.232792795607e+03 
       2.675419422978e-02       3.942325833474e+03 
       3.364043967129e-02       3.457900219093e+03 
       4.138760660502e-02       2.969546294673e+03 
       4.741497300609e-02       2.686685671177e+03 
       5.190505525144e-02       2.525436460264e+03 
       5.569102430843e-02       2.411836826126e+03 
       5.911156208046e-02       2.319138688959e+03 
       6.232401240346e-02       2.235361146404e+03 
       6.541429771069e-02       2.154264464365e+03 
       6.843510626508e-02       2.072477854179e+03 
       7.142163939351e-02       1.988380187041e+03 
       7.439904339451e-02       1.901574604870e+03 
       7.738629059843e-02       1.812577125600e+03 
       8.039836962149e-02       1.722577258779e+03 
       8.344759924185e-02       1.633214054318e+03 
       8.654445623177e-02       1.546350058277e+03 
       8.969811830918e-02       1.463844906767e+03 
       9.291683223295e-02       1.387340630291e+03 
       9.620817027751e-02       1.318072863525e+03 
       9.957921299295e-02       1.256721762504e+03 
       1.030366818124e-01       1.203313684208e+03 
       1.065870366286e-01       1.157182031187e+03 
       1.102365483319e-01       1.116997567721e+03 
       1.139913530928e-01       1.080881318360e+03 
       1.178574931259e-01       1.046611811148e+03 
       1.218409473327e-01       1.011928029483e+03 
       1.259476543438e-01       9.749031414153e+02 
       1.301835298942e-01       9.343261801396e+02 
       1.345544800739e-01       8.899937348892e+02 
       1.390664117403e-01       8.428071547721e+02 
       1.437252412078e-01       7.946063097771e+02 
       1.485369022173e-01       7.477490993296e+02 
       1.535073541252e-01       7.045331804188e+02 
       1.586425912008e-01       6.666135113131e+02 
       1.639486538997e-01       6.345699246424e+02 
       1.694316429592e-01       6.077378581821e+02 
       1.750977371526e-01       5.843642752012e+02 
       1.809532155312e-01       5.620978768463e+02 
       1.870044849782e-01       5.387359612627e+02 
       1.932581139063e-01       5.130102417398e+02 
       1.997208729442e-01       4.850766908228e+02 
       2.063997834959e-01       4.564205832022e+02 
       2.133021751197e-01       4.291566710146e+02 
       2.204357527761e-01       4.050423885275e+02 
       2.278086751534e-01       3.846839533418e+02 
       2.354296455036e-01       3.673089808853e+02 
       2.433080167419e-01       3.512204185903e+02 
       2.514539129940e-01       3.347435104908e+02 
       2.598783703610e-01       3.171730778509e+02 
       2.685935004454e-01       2.991097555809e+02 
       2.776126812100e-01       2.819130036537e+02 
       2.869507810970e-01       2.666601422132e+02 
       2.966244241352e-01       2.533918731636e+02 
       3.066523061632e-01       2.411929355535e+02 
       3.170555755262e-01       2.290199442765e+02 
       3.278582959934e-01       2.165765713324e+02 
       3.390880156876e-01       2.044352601762e+02 
       3.507764742396e-01       1.933081069448e+02 
       3.629604923171e-01       1.832676829389e+02 
       3.756831048301e-01       1.737583324404e+02 
       3.889950242389e-01       1.643228486180e+02 
       4.029565578527e-01       1.551036045108e+02 
       4.176401600561e-01       1.464782036660e+02 
       4.331338892501e-01       1.384310235897e+02 
       4.495461811774e-01       1.306352227657e+02 
       4.670125832389e-01       1.230177387526e+02 
       4.857054888852e-01       1.157532388885e+02 
       5.058486028637e-01       1.087949779203e+02 
       5.277391296137e-01       1.019813198992e+02 
       5.517830827555e-01       9.534625021691e+01 
       5.785539397768e-01       8.885066663451e+01 
       6.088951219090e-01       8.239357601499e+01 
       6.441100274040e-01       7.592985219870e+01 
       6.863398393139e-01       6.933182486086e+01 
       7.393757881122e-01       6.244894315092e+01 
       8.105400110262e-01       5.504400461448e+01 
       9.150764892512e-01       4.681183191172e+01 
       1.082873302291e+00       3.767127729359e+01 
       1.343424115919e+00       2.879075101260e+01 
       1.690004398537e+00       2.173206605886e+01 
       2.127572397139e+00       1.633958037212e+01 
       2.678454913651e+00       1.215141546324e+01 
       3.371974955126e+00       8.878104690057e+00 
       4.245064958942e+00       6.339105728305e+00 
       5.344220151529e+00       4.406795738150e+00 
       6.727974554983e+00       2.975921052155e+00 
       8.470018137172e+00       1.951214644489e+00 
       1.066312107124e+01       1.244273508662e+00 
