# Matter power spectrum P(k) at redshift z=1
# for k=1.77377e-07 to 11.2074 h/Mpc,
# number of wavenumbers equal to 140
#    1:k (h/Mpc)              2:P (Mpc/h)^3        
       1.773774498344e-07       9.346902055701e-01 
       2.233049790758e-07       1.165836616244e+00 
       2.811243127386e-07       1.454144920865e+00 
       3.539145411798e-07       1.813751103394e+00 
       4.455520094948e-07       2.262286938138e+00 
       5.609167470289e-07       2.821744488320e+00 
       7.061523467356e-07       3.519554392177e+00 
       8.889931339036e-07       4.389930804202e+00 
       1.119176047182e-06       5.475548932947e+00 
       1.408959166068e-06       6.829637421895e+00 
       1.773774498344e-06       8.518588155547e+00 
       2.233049790758e-06       1.062521143419e+01 
       2.811243127386e-06       1.325279608599e+01 
       3.539145411798e-06       1.653017351887e+01 
       4.455520094948e-06       2.061803386734e+01 
       5.609167470289e-06       2.571680365633e+01 
       7.061523467356e-06       3.207647069731e+01 
       8.889931339036e-06       4.000883687426e+01 
       1.119176047182e-05       4.990279753258e+01 
       1.408959166068e-05       6.224339249336e+01 
       1.773774498344e-05       7.763555468828e+01 
       2.233049790758e-05       9.683370476880e+01 
       2.811243127386e-05       1.207786110980e+02 
       3.539145411798e-05       1.506432598427e+02 
       4.455520094948e-05       1.878898610232e+02 
       5.609167470289e-05       2.343405426812e+02 
       7.061523467356e-05       2.922647225692e+02 
       8.889931339036e-05       3.644865072868e+02 
       1.119176047182e-04       4.545155670976e+02 
       1.408959166068e-04       5.667043963973e+02 
       1.773774498344e-04       7.064330029581e+02 
       2.233049790758e-04       8.803176939283e+02 
       2.811243127386e-04       1.096432030314e+03 
       3.539145411798e-04       1.364513473107e+03 
       4.455520094948e-04       1.696109103407e+03 
       5.609167470289e-04       2.104594730397e+03 
       7.061523467356e-04       2.604996863979e+03 
       8.889931339036e-04       3.213545573974e+03 
       1.119176047182e-03       3.946777292519e+03 
       1.408959166068e-03       4.819698853026e+03 
       1.773774498344e-03       5.842581806295e+03 
       2.233049790758e-03       7.016605219289e+03 
       2.811243127386e-03       8.328384712641e+03 
       3.539145411798e-03       9.743992209733e+03 
       4.455520094948e-03       1.120201790035e+04 
       5.609167470289e-03       1.260803555892e+04 
       7.061523467356e-03       1.383104018632e+04 
       8.889931339036e-03       1.470283734231e+04 
       1.119176047182e-02       1.502366903110e+04 
       1.408959166068e-02       1.458379842812e+04 
       1.773774497554e-02       1.322377347052e+04 
       2.233048548762e-02       1.096322104625e+04 
       2.810932411588e-02       8.177946785846e+03 
       3.521890412709e-02       5.667911212212e+03 
       4.221387360687e-02       4.300468710260e+03 
       4.723947659934e-02       3.809579688586e+03 
       5.120209019905e-02       3.595186715925e+03 
       5.465698045536e-02       3.471107370813e+03 
       5.783594432224e-02       3.371749442283e+03 
       6.085470900836e-02       3.267157262020e+03 
       6.377983688111e-02       3.142506396316e+03 
       6.665371710587e-02       2.991657369429e+03 
       6.950550626917e-02       2.814532327253e+03 
       7.235652778342e-02       2.615583918292e+03 
       7.522318905737e-02       2.402486806097e+03 
       7.811867211754e-02       2.184797836127e+03 
       8.105396955898e-02       1.972590721679e+03 
       8.403854866353e-02       1.775191947745e+03 
       8.708079323094e-02       1.600172892569e+03 
       9.018830667203e-02       1.452711482586e+03 
       9.336812525294e-02       1.335342925441e+03 
       9.662687125068e-02       1.248012538782e+03 
       9.997086477023e-02       1.188278119114e+03 
       1.034062064035e-01       1.151527670195e+03 
       1.069388388692e-01       1.131191366956e+03 
       1.105745932224e-01       1.119085661776e+03 
       1.143192235777e-01       1.106130583848e+03 
       1.181784332136e-01       1.083617822218e+03 
       1.221578942130e-01       1.044937608600e+03 
       1.262632623194e-01       9.872958356415e+02 
       1.305001883721e-01       9.127020705292e+02 
       1.348743274765e-01       8.276225710960e+02 
       1.393913469262e-01       7.412214751198e+02 
       1.440569338101e-01       6.627965129702e+02 
       1.488768031792e-01       5.993922578616e+02 
       1.538567076152e-01       5.543480770334e+02 
       1.590024490213e-01       5.269040851030e+02 
       1.643198934418e-01       5.125504899165e+02 
       1.698149897053e-01       5.039691930212e+02 
       1.754937926853e-01       4.928303648847e+02 
       1.813624919659e-01       4.725230747893e+02 
       1.874274467137e-01       4.408827807255e+02 
       1.936952275777e-01       4.011787723479e+02 
       2.001726664809e-01       3.603546389263e+02 
       2.068669152482e-01       3.254757381643e+02 
       2.137855141262e-01       3.005555008886e+02 
       2.209364714329e-01       2.852241994254e+02 
       2.283283558192e-01       2.753257508762e+02 
       2.359704029739e-01       2.650766357523e+02 
       2.438726390719e-01       2.502186247869e+02 
       2.520460238913e-01       2.305087350098e+02 
       2.605026173601e-01       2.094760574255e+02 
       2.692557743915e-01       1.914710828720e+02 
       2.783203743233e-01       1.785157735341e+02 
       2.877130932136e-01       1.692590950578e+02 
       2.974527298310e-01       1.604386377683e+02 
       3.075605996782e-01       1.497085426190e+02 
       3.180610161637e-01       1.375164885160e+02 
       3.289818846460e-01       1.261633231368e+02 
       3.403554443493e-01       1.171535078581e+02 
       3.522192063611e-01       1.097978002015e+02 
       3.646171550590e-01       1.023785468134e+02 
       3.776013085375e-01       9.432272067115e+01 
       3.912337760471e-01       8.661184772452e+01 
       4.055895156660e-01       8.003874219668e+01 
       4.207600979867e-01       7.408869184803e+01 
       4.368589471881e-01       6.804705876684e+01 
       4.540288060565e-01       6.218360982141e+01 
       4.724526439749e-01       5.690128254947e+01 
       4.923700682281e-01       5.186950889719e+01 
       5.141028604471e-01       4.692813620365e+01 
       5.380962974919e-01       4.229135520473e+01 
       5.649891490830e-01       3.780025090701e+01 
       5.957388322738e-01       3.343084857737e+01 
       6.318598785811e-01       2.915434017007e+01 
       6.759130319600e-01       2.490340262758e+01 
       7.325913118812e-01       2.060413078654e+01 
       8.112828930960e-01       1.617814767627e+01 
       9.316618853565e-01       1.161941077639e+01 
       1.126876010318e+00       7.332854521438e+00 
       1.411125030353e+00       4.224058478751e+00 
       1.776248585279e+00       2.384764628618e+00 
       2.236162707108e+00       1.336677614256e+00 
       2.815162054872e+00       7.445476177636e-01 
       3.544079049197e+00       4.123605764749e-01 
       4.461731176441e+00       2.271883460851e-01 
       5.616986758616e+00       1.245662340153e-01 
       7.071367368133e+00       6.799544899849e-02 
       8.902324075875e+00       3.696257138239e-02 
       1.120736200315e+01       2.001535724683e-02 
