# Matter power spectrum P(k) at redshift z=0.5
# for k=2.03176e-07 to 10.194 h/Mpc,
# number of wavenumbers equal to 139
#    1:k (h/Mpc)              2:P (Mpc/h)^3        
       2.031755044069e-07       5.260205775003e-01 
       2.557828055519e-07       6.572835048818e-01 
       3.220114738093e-07       8.213017210785e-01 
       4.053884272678e-07       1.026248965011e+00 
       5.103537927348e-07       1.282338646245e+00 
       6.424973586793e-07       1.602332822796e+00 
       8.088562518520e-07       2.002178189019e+00 
       1.018289689945e-06       2.501800766547e+00 
       1.281950767240e-06       3.126098900473e+00 
       1.613880397547e-06       3.906184044211e+00 
       2.031755044069e-06       4.880931162689e+00 
       2.557828055519e-06       6.098916010000e+00 
       3.220114738093e-06       7.620835809674e+00 
       4.053884272678e-06       9.522533940878e+00 
       5.103537927348e-06       1.189877930541e+01 
       6.424973586793e-06       1.486798860396e+01 
       8.088562518520e-06       1.857812662207e+01 
       1.018289689945e-05       2.321407811747e+01 
       1.281950767240e-05       2.900685777474e+01 
       1.613880397547e-05       3.624511544878e+01 
       2.031755044069e-05       4.528950652510e+01 
       2.557828055519e-05       5.659063661730e+01 
       3.220114738093e-05       7.071146112901e+01 
       4.053884272678e-05       8.835522882117e+01 
       5.103537927348e-05       1.104003083276e+02 
       6.424973586793e-05       1.379435275206e+02 
       8.088562518520e-05       1.723539774668e+02 
       1.018289689945e-04       2.153395547793e+02 
       1.281950767240e-04       2.690287643237e+02 
       1.613880397547e-04       3.360703269588e+02 
       2.031755044069e-04       4.197526452967e+02 
       2.557828055519e-04       5.241436836765e+02 
       3.220114738093e-04       6.542486058803e+02 
       4.053884272678e-04       8.161768804517e+02 
       5.103537927348e-04       1.017302582062e+03 
       6.424973586793e-04       1.266393234279e+03 
       8.088562518520e-04       1.573675276701e+03 
       1.018289689945e-03       1.950783818744e+03 
       1.281950767240e-03       2.410465680865e+03 
       1.613880397547e-03       2.965793967590e+03 
       2.031755044069e-03       3.628721222686e+03 
       2.557828055519e-03       4.407809654681e+03 
       3.220114738093e-03       5.304925388761e+03 
       4.053884272678e-03       6.311003263774e+03 
       5.103537927348e-03       7.400508660821e+03 
       6.424973586793e-03       8.525243453741e+03 
       8.088562518520e-03       9.608159727790e+03 
       1.018289689945e-02       1.053786942160e+04 
       1.281950767240e-02       1.116696804676e+04 
       1.613880397546e-02       1.132175123946e+04 
       2.031755035595e-02       1.084053184077e+04 
       2.557820448979e-02       9.664499800223e+03 
       3.218910648909e-02       7.977055090073e+03 
       4.008724645486e-02       6.323719447838e+03 
       4.699226186569e-02       5.379265619945e+03 
       5.196224591786e-02       4.938577458645e+03 
       5.602077756912e-02       4.674785667483e+03 
       5.962577878411e-02       4.479774758206e+03 
       6.297801758153e-02       4.310132666233e+03 
       6.618235320064e-02       4.144674836973e+03 
       6.930106518295e-02       3.972469414985e+03 
       7.237477198796e-02       3.788577704528e+03 
       7.543193904353e-02       3.592174414288e+03 
       7.849370513510e-02       3.385463598291e+03 
       8.157654698526e-02       3.172834288919e+03 
       8.469385003847e-02       2.960060056990e+03 
       8.785688428853e-02       2.753498002958e+03 
       9.107543692133e-02       2.559317166197e+03 
       9.435823712727e-02       2.382813386113e+03 
       9.771324976256e-02       2.227865440215e+03 
       1.011478832609e-01       2.096562538522e+03 
       1.046691397158e-01       1.989003537915e+03 
       1.082837248844e-01       1.903250892814e+03 
       1.119981297359e-01       1.835431899285e+03 
       1.158186913766e-01       1.780013874936e+03 
       1.197516387639e-01       1.730317248125e+03 
       1.238031270680e-01       1.679329198997e+03 
       1.279792635043e-01       1.620805548745e+03 
       1.322861267862e-01       1.550500286253e+03 
       1.367297818860e-01       1.467199381442e+03 
       1.413162914976e-01       1.373164715254e+03 
       1.460517253886e-01       1.273706105108e+03 
       1.509421687060e-01       1.175893550467e+03 
       1.559937302131e-01       1.086762501211e+03 
       1.612125513870e-01       1.011555100301e+03 
       1.666048172698e-01       9.524716974615e+02 
       1.721767699511e-01       9.081740915005e+02 
       1.779347255417e-01       8.741033498417e+02 
       1.838850954907e-01       8.436424721155e+02 
       1.900344130955e-01       8.100785765695e+02 
       1.963893660523e-01       7.689453707860e+02 
       2.029568359109e-01       7.197874368880e+02 
       2.097439453257e-01       6.662845750117e+02 
       2.167581140500e-01       6.144393799065e+02 
       2.240071247151e-01       5.697165533130e+02 
       2.314991995764e-01       5.346148704447e+02 
       2.392430896178e-01       5.077548431404e+02 
       2.472481776999e-01       4.847836119443e+02 
       2.555245978454e-01       4.607560429043e+02 
       2.640833732972e-01       4.329248147081e+02 
       2.729365767193e-01       4.022165980435e+02 
       2.820975168747e-01       3.722065818249e+02 
       2.915809573922e-01       3.463164096849e+02 
       3.014033749264e-01       3.254048940044e+02 
       3.115832662681e-01       3.074654289525e+02 
       3.221415169844e-01       2.895216304789e+02 
       3.331018482574e-01       2.701800976058e+02 
       3.444913642091e-01       2.505682855842e+02 
       3.563412297846e-01       2.327715155486e+02 
       3.686875202525e-01       2.175230639493e+02 
       3.815722990913e-01       2.036483223753e+02 
       3.950450039090e-01       1.897063254081e+02 
       4.091642539541e-01       1.757065394901e+02 
       4.240002440851e-01       1.626920623785e+02 
       4.396379693893e-01       1.509870241679e+02 
       4.561816503108e-01       1.398445025408e+02 
       4.737609326383e-01       1.288474764382e+02 
       4.925397795612e-01       1.184302639355e+02 
       5.127295674967e-01       1.087192213668e+02 
       5.346089679383e-01       9.930678892106e+01 
       5.585552098801e-01       9.021262325237e+01 
       5.850952887541e-01       8.152305312252e+01 
       6.149939719729e-01       7.302434969483e+01 
       6.494138456195e-01       6.472238108122e+01 
       6.902263853322e-01       5.648418221362e+01 
       7.406643806319e-01       4.820348044316e+01 
       8.068018174230e-01       3.970921152370e+01 
       9.010565027684e-01       3.083573325061e+01 
       1.049034500537e+00       2.168006935219e+01 
       1.286268306188e+00       1.342107163604e+01 
       1.615700616747e+00       7.779517624457e+00 
       2.033968036060e+00       4.446973406430e+00 
       2.560613706308e+00       2.521743960935e+00 
       3.223621664444e+00       1.419790234122e+00 
       4.058299231379e+00       7.941731131986e-01 
       5.109096031048e+00       4.415932734379e-01 
       6.431970824783e+00       2.442108197355e-01 
       8.097371519238e+00       1.343800896740e-01 
       1.019398677431e+01       7.360393261762e-02 
