# Matter power spectrum P(k) at redshift z=0
# for k=2.06008e-07 to 10.3354 h/Mpc,
# number of wavenumbers equal to 139
#    1:k (h/Mpc)              2:P (Mpc/h)^3        
       2.060078579938e-07       1.704666768654e+00 
       2.593485274577e-07       2.117724664052e+00 
       3.265004517279e-07       2.630870638943e+00 
       4.110397156425e-07       3.268357040003e+00 
       5.174683432790e-07       4.060312799699e+00 
       6.514540471530e-07       5.044167391616e+00 
       8.201320545770e-07       6.266419821603e+00 
       1.032485084534e-06       7.784836261938e+00 
       1.299821710218e-06       9.671180188911e+00 
       1.636378581796e-06       1.201460405206e+01 
       2.060078579938e-06       1.492586275747e+01 
       2.593485274577e-06       1.854254808531e+01 
       3.265004517279e-06       2.303559138630e+01 
       4.110397156425e-06       2.861734180322e+01 
       5.174683432790e-06       3.555160164324e+01 
       6.514540471530e-06       4.416609286475e+01 
       8.201320545770e-06       5.486794322461e+01 
       1.032485084534e-05       6.816292271815e+01 
       1.299821710218e-05       8.467933694317e+01 
       1.636378581796e-05       1.051977017179e+02 
       2.060078579938e-05       1.306875916880e+02 
       2.593485274577e-05       1.623533853361e+02 
       3.265004517279e-05       2.016910307665e+02 
       4.110397156425e-05       2.505584411822e+02 
       5.174683432790e-05       3.112627020212e+02 
       6.514540471530e-05       3.866679269649e+02 
       8.201320545770e-05       4.803283053802e+02 
       1.032485084534e-04       5.966515501582e+02 
       1.299821710218e-04       7.410983896984e+02 
       1.636378581796e-04       9.204235656708e+02 
       2.060078579938e-04       1.142962308683e+03 
       2.593485274577e-04       1.418962370796e+03 
       3.265004517279e-04       1.760954010802e+03 
       4.110397156425e-04       2.184137942750e+03 
       5.174683432790e-04       2.706755367789e+03 
       6.514540471530e-04       3.350387800968e+03 
       8.201320545770e-04       4.140107913781e+03 
       1.032485084534e-03       5.104309877638e+03 
       1.299821710218e-03       6.273844246282e+03 
       1.636378581796e-03       7.680019602086e+03 
       2.060078579938e-03       9.351169502528e+03 
       2.593485274577e-03       1.130715642248e+04 
       3.265004517279e-03       1.355152827631e+04 
       4.110397156425e-03       1.606138036614e+04 
       5.174683432790e-03       1.877483029022e+04 
       6.514540471530e-03       2.157758734598e+04 
       8.201320545770e-03       2.429066560064e+04 
       1.032485084534e-02       2.666189907292e+04 
       1.299821710218e-02       2.836808303531e+04 
       1.636378581789e-02       2.904226860191e+04 
       2.060078547285e-02       2.835560083435e+04 
       2.593464436190e-02       2.618903034930e+04 
       3.262505981843e-02       2.287900283682e+04 
       4.037452302897e-02       1.949415868412e+04 
       4.667728640118e-02       1.739999316585e+04 
       5.129512843098e-02       1.617966881876e+04 
       5.514031008030e-02       1.529574322780e+04 
       5.859118948678e-02       1.456069534503e+04 
       6.181937372920e-02       1.389639059256e+04 
       6.491690874255e-02       1.326535256200e+04 
       6.793951435840e-02       1.264931264601e+04 
       7.092405479091e-02       1.204080435935e+04 
       7.389665929911e-02       1.143911009176e+04 
       7.687691443483e-02       1.084785142690e+04 
       7.988020889000e-02       1.027324967200e+04 
       8.291913015618e-02       9.722690248572e+03 
       8.600433946267e-02       9.203472605631e+03 
       8.914514291450e-02       8.721730680609e+03 
       9.234987718469e-02       8.281555233104e+03 
       9.562617738377e-02       7.884359157359e+03 
       9.898116743785e-02       7.528529047425e+03 
       1.024215979349e-01       7.209402906661e+03 
       1.059539473958e-01       6.919613471362e+03 
       1.095844974751e-01       6.649827760471e+03 
       1.133193891994e-01       6.389879889444e+03 
       1.171646651870e-01       6.130220604048e+03 
       1.211263013845e-01       5.863492953651e+03 
       1.252102309288e-01       5.585921834328e+03 
       1.294223621282e-01       5.298136144295e+03 
       1.337685921453e-01       5.005094546765e+03 
       1.382548176913e-01       4.714984928822e+03 
       1.428869438641e-01       4.437268703205e+03 
       1.476708921447e-01       4.180326637946e+03 
       1.526126084936e-01       3.949316420838e+03 
       1.577180724423e-01       3.744820155864e+03 
       1.629933080472e-01       3.562684566005e+03 
       1.684443975532e-01       3.395199740983e+03 
       1.740774986037e-01       3.233433166966e+03 
       1.798988658238e-01       3.070119458739e+03 
       1.859148776027e-01       2.902107806355e+03 
       1.921320689010e-01       2.731290165915e+03 
       1.985571709269e-01       2.563443775836e+03 
       2.051971585551e-01       2.405406048139e+03 
       2.120593064254e-01       2.261887547809e+03 
       2.191512547523e-01       2.133442694640e+03 
       2.264810860275e-01       2.016550814021e+03 
       2.340574140137e-01       1.905737993298e+03 
       2.418894867327e-01       1.796612637517e+03 
       2.499873055643e-01       1.688073344141e+03 
       2.583617631383e-01       1.582325382586e+03 
       2.670248034449e-01       1.482771893513e+03 
       2.759896085788e-01       1.391368535808e+03 
       2.852708178386e-01       1.307370797172e+03 
       2.948847866384e-01       1.228258749016e+03 
       3.048498949910e-01       1.151896169836e+03 
       3.151869184307e-01       1.078013231101e+03 
       3.259194784489e-01       1.007794686112e+03 
       3.370745953058e-01       9.422164221988e+02 
       3.486833741310e-01       8.809505823996e+02 
       3.607818666094e-01       8.228657618666e+02 
       3.734121668831e-01       7.672853802246e+02 
       3.866238241514e-01       7.144040386944e+02 
       4.004756899469e-01       6.645285151478e+02 
       4.150383719565e-01       6.174011887355e+02 
       4.303975499401e-01       5.725230807352e+02 
       4.466585424835e-01       5.297329179035e+02 
       4.639527311662e-01       4.890524120988e+02 
       4.824468160922e-01       4.502806304234e+02 
       5.023565178754e-01       4.131480371997e+02 
       5.239675042585e-01       3.775238321658e+02 
       5.476685241176e-01       3.432220433480e+02 
       5.740061239863e-01       3.099957518205e+02 
       6.037795838036e-01       2.776105089204e+02 
       6.382155218620e-01       2.457565014311e+02 
       6.793117413565e-01       2.140505349944e+02 
       7.305688966713e-01       1.819843439733e+02 
       7.986710163531e-01       1.488945340231e+02 
       8.974421909014e-01       1.141666452251e+02 
       1.054704256414e+00       7.862947388417e+01 
       1.302735624060e+00       4.786903491869e+01 
       1.638078371208e+00       2.767106072336e+01 
       2.062186080218e+00       1.580244683342e+01 
       2.596138358146e+00       8.948415997320e+00 
       3.268344551560e+00       5.028745794352e+00 
       4.114602010457e+00       2.806551756265e+00 
       5.179977030384e+00       1.556530606492e+00 
       6.521204716061e+00       8.583263912065e-01 
       8.209710332561e+00       4.708342352483e-01 
       1.033541296113e+01       2.570333331683e-01 
