# Matter power spectrum P(k) at redshift z=1.5
# for k=2.27288e-07 to 11.4068 h/Mpc,
# number of wavenumbers equal to 139
#    1:k (h/Mpc)              2:P (Mpc/h)^3        
       2.272880490157e-07       1.900732485261e-01 
       2.861387007029e-07       2.359994534201e-01 
       3.602272816127e-07       2.930225185875e-01 
       4.534992788437e-07       3.638237086857e-01 
       5.709217663667e-07       4.517321451558e-01 
       7.187479198255e-07       5.608813445018e-01 
       9.048500209425e-07       6.964035783046e-01 
       1.139138685227e-06       8.646711961454e-01 
       1.434090638390e-06       1.073596257607e+00 
       1.805413147485e-06       1.333002561944e+00 
       2.272880490157e-06       1.655087567927e+00 
       2.861387007029e-06       2.054995922260e+00 
       3.602272816127e-06       2.551531564484e+00 
       4.534992788437e-06       3.168041886228e+00 
       5.709217663667e-06       3.933515509868e+00 
       7.187479198255e-06       4.883945295035e+00 
       9.048500209425e-06       6.064020630047e+00 
       1.139138685227e-05       7.529228524951e+00 
       1.434090638390e-05       9.348462190043e+00 
       1.805413147485e-05       1.160725954332e+01 
       2.272880490157e-05       1.441182348833e+01 
       2.861387007029e-05       1.789401215633e+01 
       3.602272816127e-05       2.221753210160e+01 
       4.534992788437e-05       2.758562238438e+01 
       5.709217663667e-05       3.425058445789e+01 
       7.187479198255e-05       4.252559333602e+01 
       9.048500209425e-05       5.279932079035e+01 
       1.139138685227e-04       6.555400982607e+01 
       1.434090638390e-04       8.138775629979e+01 
       1.805413147485e-04       1.010418630331e+02 
       2.272880490157e-04       1.254342024733e+02 
       2.861387007029e-04       1.556994936234e+02 
       3.602272816127e-04       1.932371594262e+02 
       4.534992788437e-04       2.397668213738e+02 
       5.709217663667e-04       2.973903328435e+02 
       7.187479198255e-04       3.686575071738e+02 
       9.048500209425e-04       4.566306445919e+02 
       1.139138685227e-03       5.649406897808e+02 
       1.434090638390e-03       6.978218902433e+02 
       1.805413147485e-03       8.600914209935e+02 
       2.272880490157e-03       1.057009008740e+03 
       2.861387007029e-03       1.293957507790e+03 
       3.602272816127e-03       1.575880262356e+03 
       4.534992788437e-03       1.902408320132e+03 
       5.709217663667e-03       2.280194265980e+03 
       7.187479198255e-03       2.702243075735e+03 
       9.048500209425e-03       3.156416408054e+03 
       1.139138685227e-02       3.619476505313e+03 
       1.434090638390e-02       4.053930013459e+03 
       1.805413146196e-02       4.407345771387e+03 
       2.272878687079e-02       4.619145506295e+03 
       2.860977188377e-02       4.641815370671e+03 
       3.581280082786e-02       4.481332788239e+03 
       4.273533535531e-02       4.265370391811e+03 
       4.769376666220e-02       4.109183195357e+03 
       5.163333268457e-02       3.988346645931e+03 
       5.508220706477e-02       3.883708905713e+03 
       5.826290993639e-02       3.786540855848e+03 
       6.128760788212e-02       3.692302762339e+03 
       6.422125743324e-02       3.598464958973e+03 
       6.710543405789e-02       3.503668910353e+03 
       6.996884716405e-02       3.407349734775e+03 
       7.283256045236e-02       3.309533686468e+03 
       7.571282524057e-02       3.210699957014e+03 
       7.862272839099e-02       3.111662721873e+03 
       8.157320501474e-02       3.013451810479e+03 
       8.457368921788e-02       2.917186471241e+03 
       8.763254787822e-02       2.823943886081e+03 
       9.075737869161e-02       2.734628233545e+03 
       9.395522014228e-02       2.649851442901e+03 
       9.723270246771e-02       2.569838752855e+03 
       1.005961579675e-01       2.494372197079e+03 
       1.040517025970e-01       2.422786857999e+03 
       1.076052968369e-01       2.354030610226e+03 
       1.112627913350e-01       2.286793794703e+03 
       1.150299612047e-01       2.219703002330e+03 
       1.189125318104e-01       2.151559053357e+03 
       1.229161981710e-01       2.081580600859e+03 
       1.270466396446e-01       2.009598135092e+03 
       1.313095312510e-01       1.936140511987e+03 
       1.357105527807e-01       1.862368409781e+03 
       1.402553967087e-01       1.789844411403e+03 
       1.449497758420e-01       1.720174966836e+03 
       1.497994315809e-01       1.654605730388e+03 
       1.548101436356e-01       1.593679098215e+03 
       1.599877420220e-01       1.537061929675e+03 
       1.653381221454e-01       1.483621662625e+03 
       1.708672637721e-01       1.431766301900e+03 
       1.765812546815e-01       1.379975649765e+03 
       1.824863197952e-01       1.327354259938e+03 
       1.885888565848e-01       1.273980719875e+03 
       1.948954775863e-01       1.220868955023e+03 
       2.014130608940e-01       1.169514456810e+03 
       2.081488095844e-01       1.121206718844e+03 
       2.151103211432e-01       1.076430770197e+03 
       2.223056681466e-01       1.034663781815e+03 
       2.297434917055e-01       9.946939327182e+02 
       2.374331095355e-01       9.553153469902e+02 
       2.453846409916e-01       9.160098606422e+02 
       2.536091520516e-01       8.771824434178e+02 
       2.621188240789e-01       8.397779122573e+02 
       2.709271513189e-01       8.045462402951e+02 
       2.800491735711e-01       7.715011037885e+02 
       2.895017524528e-01       7.399802363144e+02 
       2.993039023177e-01       7.092398175050e+02 
       3.094771904676e-01       6.790578806550e+02 
       3.200462261813e-01       6.497995233821e+02 
       3.310392648546e-01       6.219134622717e+02 
       3.424889630462e-01       5.954147776423e+02 
       3.544333337744e-01       5.699080835958e+02 
       3.669169710601e-01       5.450694874659e+02 
       3.799926417142e-01       5.209548777330e+02 
       3.937233860451e-01       4.977598639721e+02 
       4.081853363453e-01       4.754373138028e+02 
       4.234715678461e-01       4.537527094385e+02 
       4.396974679620e-01       4.326119471780e+02 
       4.570083945607e-01       4.120579885269e+02 
       4.755908841310e-01       3.920132934301e+02 
       4.956895454968e-01       3.723225899977e+02 
       5.176334024667e-01       3.529131417295e+02 
       5.418786244305e-01       3.336707572448e+02 
       5.690811220583e-01       3.144111228902e+02 
       6.002267914600e-01       2.949324717245e+02 
       6.368806758064e-01       2.749207990176e+02 
       6.817003246040e-01       2.539247514746e+02 
       7.395808492209e-01       2.312407771068e+02 
       8.203610215398e-01       2.057906522589e+02 
       9.446270573651e-01       1.762470224841e+02 
       1.145949344205e+00       1.431218239356e+02 
       1.436184870607e+00       1.120593511260e+02 
       1.807850865748e+00       8.619660217899e+01 
       2.275948127671e+00       6.461483545785e+01 
       2.865248932571e+00       4.671614919850e+01 
       3.607134692330e+00       3.240811131920e+01 
       4.541113527938e+00       2.161089179734e+01 
       5.716923218164e+00       1.393987963695e+01 
       7.197179916623e+00       8.760480040855e+00 
       9.060712690291e+00       5.398182335791e+00 
       1.140676145477e+01       3.278392376768e+00 
