# Matter power spectrum P(k) at redshift z=2.5
# for k=1.75376e-07 to 11.0768 h/Mpc,
# number of wavenumbers equal to 140
#    1:k (h/Mpc)              2:P (Mpc/h)^3        
       1.753758613677e-07       2.992473270469e-01 
       2.207851284911e-07       3.733535451938e-01 
       2.779520088036e-07       4.658115780802e-01 
       3.499208471421e-07       5.811661064440e-01 
       4.405242465838e-07       7.250872646428e-01 
       5.545871685358e-07       9.046493503706e-01 
       6.981838795247e-07       1.128678553972e+00 
       8.789614280386e-07       1.408186799982e+00 
       1.106546877745e-06       1.756913024974e+00 
       1.393059983734e-06       2.191998498373e+00 
       1.753758613677e-06       2.734829375723e+00 
       2.207851284911e-06       3.412087898969e+00 
       2.779520088036e-06       4.257063907386e+00 
       3.499208471421e-06       5.311291109786e+00 
       4.405242465838e-06       6.626588517176e+00 
       5.545871685358e-06       8.267607338758e+00 
       6.981838795247e-06       1.031500840039e+01 
       8.789614280386e-06       1.286942609517e+01 
       1.106546877745e-05       1.605641324517e+01 
       1.393059983734e-05       2.003260915665e+01 
       1.753758613677e-05       2.499343238548e+01 
       2.207851284911e-05       3.118267315043e+01 
       2.779520088036e-05       3.890445050791e+01 
       3.499208471421e-05       4.853810946194e+01 
       4.405242465838e-05       6.055676545570e+01 
       5.545871685358e-05       7.555035869174e+01 
       6.981838795247e-05       9.425425513776e+01 
       8.789614280386e-05       1.175846101851e+02 
       1.106546877745e-04       1.466818617796e+02 
       1.393059983734e-04       1.829637670252e+02 
       1.753758613677e-04       2.281891918219e+02 
       2.207851284911e-04       2.845331294852e+02 
       2.779520088036e-04       3.546716866961e+02 
       3.499208471421e-04       4.418723401755e+02 
       4.405242465838e-04       5.500789159484e+02 
       5.545871685358e-04       6.839725838544e+02 
       6.981838795247e-04       8.489823856686e+02 
       8.789614280386e-04       1.051217102272e+03 
       1.106546877745e-03       1.297291235498e+03 
       1.393059983734e-03       1.593974918705e+03 
       1.753758613677e-03       1.947459270271e+03 
       2.207851284911e-03       2.362036069443e+03 
       2.779520088036e-03       2.838361201816e+03 
       3.499208471421e-03       3.371174028912e+03 
       4.405242465838e-03       3.945043545069e+03 
       5.545871685358e-03       4.535237940093e+03 
       6.981838795247e-03       5.098314913488e+03 
       8.789614280386e-03       5.572439512727e+03 
       1.106546877745e-02       5.875562019653e+03 
       1.393059983729e-02       5.911690186656e+03 
       1.753758588238e-02       5.595230863038e+03 
       2.207834676049e-02       4.906795106232e+03 
       2.777491311090e-02       3.973490768612e+03 
       3.438954185595e-02       3.129222928131e+03 
       3.979427342809e-02       2.692872360292e+03 
       4.374835342807e-02       2.488128763671e+03 
       4.703668972852e-02       2.365234071729e+03 
       4.998585249291e-02       2.274694124198e+03 
       5.274361685170e-02       2.195573743287e+03 
       5.538910619172e-02       2.117233490932e+03 
       5.797015715020e-02       2.033999708590e+03 
       6.051838818261e-02       1.943233275671e+03 
       6.305619332490e-02       1.844468167298e+03 
       6.560034862660e-02       1.738901931182e+03 
       6.816402757754e-02       1.628975007556e+03 
       7.075800072435e-02       1.517947220353e+03 
       7.339138674953e-02       1.409455790439e+03 
       7.607214253169e-02       1.307076460177e+03 
       7.880739395974e-02       1.213927687938e+03 
       8.160366561636e-02       1.132354856342e+03 
       8.446704397510e-02       1.063713977280e+03 
       8.740329554164e-02       1.008254408055e+03 
       9.041795363478e-02       9.650864176690e+02 
       9.351638282010e-02       9.322201785156e+02 
       9.670382709326e-02       9.066876292886e+02 
       9.998544605133e-02       8.847860788496e+02 
       1.033663420826e-01       8.624951337097e+02 
       1.068515808098e-01       8.360831755428e+02 
       1.104462064947e-01       8.028344526158e+02 
       1.141552537568e-01       7.617156252643e+02 
       1.179837567293e-01       7.137335509100e+02 
       1.219367566185e-01       6.617791183135e+02 
       1.260193085338e-01       6.099269159872e+02 
       1.302364883948e-01       5.623853506341e+02 
       1.345934006777e-01       5.224333694972e+02 
       1.390951877426e-01       4.916460098472e+02 
       1.437470414657e-01       4.695514635363e+02 
       1.485542178902e-01       4.537362358426e+02 
       1.535220556027e-01       4.404148158917e+02 
       1.586559985379e-01       4.254960510977e+02 
       1.639616239201e-01       4.059927922936e+02 
       1.694446760587e-01       3.812387866119e+02 
       1.751111067447e-01       3.531827144160e+02 
       1.809671230470e-01       3.254281477059e+02 
       1.870192433873e-01       3.014883763848e+02 
       1.932743629021e-01       2.832043327037e+02 
       1.997398292810e-01       2.700436472580e+02 
       2.064235305326e-01       2.594864830478e+02 
       2.133339964803e-01       2.483676067088e+02 
       2.204805162696e-01       2.346653829503e+02 
       2.278732748038e-01       2.186781503739e+02 
       2.355235118645e-01       2.026152912820e+02 
       2.434437087866e-01       1.888452129265e+02 
       2.516478090321e-01       1.781959604816e+02 
       2.601514809682e-01       1.695372365207e+02 
       2.689724337948e-01       1.608585556918e+02 
       2.781308011500e-01       1.510176452069e+02 
       2.876496118361e-01       1.406282710601e+02 
       2.975553739620e-01       1.311770739368e+02 
       3.078788084668e-01       1.233560006859e+02 
       3.186557818740e-01       1.164480739722e+02 
       3.299285083909e-01       1.093572841637e+02 
       3.417471216204e-01       1.019734571546e+02 
       3.541717619147e-01       9.507881247810e+01 
       3.672753964518e-01       8.902770088087e+01 
       3.811477021446e-01       8.328742295752e+01 
       3.959005263164e-01       7.747472022635e+01 
       4.116757516290e-01       7.193063718683e+01 
       4.286569352390e-01       6.682063888840e+01 
       4.470870775949e-01       6.181249866622e+01 
       4.672967430577e-01       5.691640051547e+01 
       4.897504714323e-01       5.224168194800e+01 
       5.151272509734e-01       4.760996715838e+01 
       5.444684083571e-01       4.305160686086e+01 
       5.794685823867e-01       3.846646371832e+01 
       6.230942708967e-01       3.378803217689e+01 
       6.810033753405e-01       2.888814666076e+01 
       7.648893907069e-01       2.363213709219e+01 
       8.983354143761e-01       1.804535974482e+01 
       1.109084851886e+00       1.287103834451e+01 
       1.394503791147e+00       9.094716650032e+00 
       1.755546876200e+00       6.532741822331e+00 
       2.210102479398e+00       4.755628388239e+00 
       2.782354173942e+00       3.485756869914e+00 
       3.502776374187e+00       2.553842507580e+00 
       4.409734189296e+00       1.856552420143e+00 
       5.551526430163e+00       1.330097881945e+00 
       6.988957697179e+00       9.337984519923e-01 
       8.798576446933e+00       6.398028171996e-01 
       1.107675147666e+01       4.268872855548e-01 
