# Matter power spectrum P(k) at redshift z=1
# for k=1.7991e-07 to 11.3631 h/Mpc,
# number of wavenumbers equal to 140
#    1:k (h/Mpc)              2:P (Mpc/h)^3        
       1.799099042695e-07       8.429968045558e-01 
       2.264931503184e-07       1.046829440674e+00 
       2.851379825331e-07       1.299947842572e+00 
       3.589674520786e-07       1.614269074583e+00 
       4.519132474288e-07       2.004591690129e+00 
       5.689250711146e-07       2.489292461316e+00 
       7.162342294329e-07       3.091191574469e+00 
       9.016854722299e-07       3.838627024134e+00 
       1.135154754436e-06       4.766788788441e+00 
       1.429075166678e-06       5.919375596592e+00 
       1.799099042695e-06       7.350652288189e+00 
       2.264931503184e-06       9.128004610965e+00 
       2.851379825331e-06       1.133511172626e+01 
       3.589674520786e-06       1.407588574237e+01 
       4.519132474288e-06       1.747936367362e+01 
       5.689250711146e-06       2.170578199486e+01 
       7.162342294329e-06       2.695411947600e+01 
       9.016854722299e-06       3.347146283029e+01 
       1.135154754436e-05       4.156463493363e+01 
       1.429075166678e-05       5.161463078803e+01 
       1.799099042695e-05       6.409453630202e+01 
       2.264931503184e-05       7.959176460037e+01 
       2.851379825331e-05       9.883563912589e+01 
       3.589674520786e-05       1.227315875714e+02 
       4.519132474288e-05       1.524034885105e+02 
       5.689250711146e-05       1.892460312430e+02 
       7.162342294329e-05       2.349892929359e+02 
       9.016854722299e-05       2.917780647907e+02 
       1.135154754436e-04       3.622686747648e+02 
       1.429075166678e-04       4.497459663910e+02 
       1.799099042695e-04       5.582623369125e+02 
       2.264931503184e-04       6.927986848649e+02 
       2.851379825331e-04       8.594428259907e+02 
       3.589674520786e-04       1.065573364255e+03 
       4.519132474288e-04       1.320025955490e+03 
       5.689250711146e-04       1.633206945589e+03 
       7.162342294329e-04       2.017111732363e+03 
       9.016854722299e-04       2.485194685758e+03 
       1.135154754436e-03       3.051967191013e+03 
       1.429075166678e-03       3.732022262578e+03 
       1.799099042695e-03       4.538173914076e+03 
       2.264931503184e-03       5.478670863060e+03 
       2.851379825331e-03       6.553275583661e+03 
       3.589674520786e-03       7.748238657912e+03 
       4.519132474288e-03       9.021408425193e+03 
       5.689250711146e-03       1.032499674200e+04 
       7.162342294329e-03       1.155783411992e+04 
       9.016854722299e-03       1.258432969373e+04 
       1.135154754436e-02       1.322809849032e+04 
       1.429075166673e-02       1.328698730267e+04 
       1.799099015328e-02       1.258553559508e+04 
       2.264913852207e-02       1.109087533462e+04 
       2.849245133939e-02       9.075641233598e+03 
       3.526854101884e-02       7.243329002573e+03 
       4.079145468899e-02       6.275520062474e+03 
       4.483515709850e-02       5.802273711233e+03 
       4.820030050660e-02       5.505118010243e+03 
       5.121943141356e-02       5.278489536545e+03 
       5.404321641251e-02       5.078067939626e+03 
       5.675240340320e-02       4.881729173176e+03 
       5.939584430404e-02       4.678009301102e+03 
       6.200584519251e-02       4.461839009109e+03 
       6.460529645211e-02       4.232591015784e+03 
       6.721135175227e-02       3.992913586088e+03 
       6.983748497809e-02       3.747800118463e+03 
       7.249471500451e-02       3.503701905355e+03 
       7.519237275714e-02       3.267643013256e+03 
       7.793860182370e-02       3.046372110509e+03 
       8.074069645974e-02       2.845613548442e+03 
       8.360533630472e-02       2.669476028914e+03 
       8.653875317784e-02       2.520050967281e+03 
       8.954685183768e-02       2.397201160115e+03 
       9.263529869402e-02       2.298524725625e+03 
       9.580958767883e-02       2.219490669402e+03 
       9.907508950635e-02       2.153778146811e+03 
       1.024370886532e-01       2.093887739002e+03 
       1.059008111561e-01       2.032082107653e+03 
       1.094714455131e-01       1.961624235634e+03 
       1.131541584320e-01       1.878117905402e+03 
       1.169541068140e-01       1.780586782446e+03 
       1.208764471175e-01       1.671870228445e+03 
       1.249263430936e-01       1.558054703505e+03 
       1.291089727802e-01       1.446989064745e+03 
       1.334295355793e-01       1.346293439151e+03 
       1.378932602005e-01       1.261457489342e+03 
       1.425054142279e-01       1.194532312636e+03 
       1.472713160528e-01       1.143666346813e+03 
       1.521963499037e-01       1.103551374913e+03 
       1.572859846962e-01       1.066803406899e+03 
       1.625457974248e-01       1.026189929205e+03 
       1.679815018201e-01       9.771802057100e+02 
       1.735989830072e-01       9.197355863462e+02 
       1.794043389315e-01       8.582308804374e+02 
       1.854039293688e-01       7.993048257216e+02 
       1.916044334219e-01       7.487087658043e+02 
       1.980129165374e-01       7.087709629594e+02 
       2.046369082618e-01       6.775880776764e+02 
       2.114844922258e-01       6.502006121501e+02 
       2.185644102065e-01       6.213058468449e+02 
       2.258861826071e-01       5.882525765466e+02 
       2.334602483462e-01       5.524203467905e+02 
       2.412981280137e-01       5.178406429418e+02 
       2.494126152872e-01       4.880634754440e+02 
       2.578180031190e-01       4.636878249076e+02 
       2.665303532185e-01       4.422903347698e+02 
       2.755678200599e-01       4.206654942096e+02 
       2.849510443244e-01       3.975531614872e+02 
       2.947036357332e-01       3.743982885022e+02 
       3.048527722585e-01       3.534341711453e+02 
       3.154299526308e-01       3.352331475137e+02 
       3.264719533133e-01       3.183645806721e+02 
       3.380220619307e-01       3.013414903544e+02 
       3.501316901012e-01       2.843501024299e+02 
       3.628625156332e-01       2.685381910516e+02 
       3.762893770407e-01       2.541074277177e+02 
       3.905042594723e-01       2.401803655169e+02 
       4.056219010987e-01       2.264029262146e+02 
       4.217878692626e-01       2.132821854239e+02 
       4.391905145092e-01       2.008509833544e+02 
       4.580792241124e-01       1.886495390840e+02 
       4.787933172292e-01       1.767442222547e+02 
       5.018097490830e-01       1.651498237426e+02 
       5.278258545714e-01       1.536052300955e+02 
       5.579114744965e-01       1.420697184953e+02 
       5.938084092455e-01       1.302967781303e+02 
       6.385673296264e-01       1.180286421720e+02 
       6.980101074555e-01       1.048319384840e+02 
       7.841737356450e-01       9.011620849153e+01 
       9.213071193092e-01       7.351232598204e+01 
       1.137726359022e+00       5.666636211853e+01 
       1.430557860779e+00       4.278934362844e+01 
       1.800936500720e+00       3.207454601134e+01 
       2.267244633025e+00       2.373357364268e+01 
       2.854291883228e+00       1.723438431260e+01 
       3.593340584474e+00       1.222610869322e+01 
       4.523747775026e+00       8.445938646392e+00 
       5.695061030527e+00       5.671366453370e+00 
       7.169657053049e+00       3.701776903759e+00 
       9.026063457933e+00       2.353605778661e+00 
       1.136314065566e+01       1.462876206963e+00 
