# Matter power spectrum P(k) at redshift z=1.5
# for k=1.8143e-07 to 11.4595 h/Mpc,
# number of wavenumbers equal to 140
#    1:k (h/Mpc)              2:P (Mpc/h)^3        
       1.814297207980e-07       8.685430802047e-01 
       2.284064859673e-07       1.076171196728e+00 
       2.875467294028e-07       1.333433505363e+00 
       3.619998847235e-07       1.652195224751e+00 
       4.557308539450e-07       2.047157992411e+00 
       5.737311529701e-07       2.536537919670e+00 
       7.222847280120e-07       3.142905737502e+00 
       9.093025986451e-07       3.894227779095e+00 
       1.144744148445e-06       4.825155812540e+00 
       1.441147498480e-06       5.978625204581e+00 
       1.814297207980e-06       7.407835122368e+00 
       2.284064859673e-06       9.178702086036e+00 
       2.875467294028e-06       1.137290001803e+01 
       3.619998847235e-06       1.409162694083e+01 
       4.557308539450e-06       1.746027196892e+01 
       5.737311529701e-06       2.163419765981e+01 
       7.222847280120e-06       2.680590407191e+01 
       9.093025986451e-06       3.321390426017e+01 
       1.144744148445e-05       4.115371920903e+01 
       1.441147498480e-05       5.099149672309e+01 
       1.814297207980e-05       6.318087721302e+01 
       2.284064859673e-05       7.828387416855e+01 
       2.875467294028e-05       9.699671257576e+01 
       3.619998847235e-05       1.201817780885e+02 
       4.557308539450e-05       1.489070745366e+02 
       5.737311529701e-05       1.844948604056e+02 
       7.222847280120e-05       2.285814167848e+02 
       9.093025986451e-05       2.831901363527e+02 
       1.144744148445e-04       3.508202054597e+02 
       1.441147498480e-04       4.345528555442e+02 
       1.814297207980e-04       5.381760654180e+02 
       2.284064859673e-04       6.663259744157e+02 
       2.875467294028e-04       8.246379912355e+02 
       3.619998847235e-04       1.019891324952e+03 
       4.557308539450e-04       1.260116920911e+03 
       5.737311529701e-04       1.554623577303e+03 
       7.222847280120e-04       1.913889506593e+03 
       9.093025986451e-04       2.349271589756e+03 
       1.144744148445e-03       2.872453355572e+03 
       1.441147498480e-03       3.494368152258e+03 
       1.814297207980e-03       4.223183549452e+03 
       2.284064859673e-03       5.061426472421e+03 
       2.875467294028e-03       6.002427215889e+03 
       3.619998847235e-03       7.026059050270e+03 
       4.557308539450e-03       8.094096565017e+03 
       5.737311529701e-03       9.138204369772e+03 
       7.222847280120e-03       1.008685276759e+04 
       9.093025986451e-03       1.082531809828e+04 
       1.144744148445e-02       1.122575459996e+04 
       1.441147498478e-02       1.115698965503e+04 
       1.814297197225e-02       1.052123100783e+04 
       2.284056030523e-02       9.323551838270e+03 
       2.874167768572e-02       7.760193957625e+03 
       3.574304758772e-02       6.283132065747e+03 
       4.174659706263e-02       5.415450713832e+03 
       4.608372164626e-02       4.961029577695e+03 
       4.964406739061e-02       4.654200224974e+03 
       5.281531419879e-02       4.407908774069e+03 
       5.576891850616e-02       4.188152468377e+03 
       5.859506154712e-02       3.979399814787e+03 
       6.134757428175e-02       3.774482106904e+03 
       6.406169716977e-02       3.570797939244e+03 
       6.676220014468e-02       3.368526332841e+03 
       6.946752269918e-02       3.169573074148e+03 
       7.219206739123e-02       2.976813909589e+03 
       7.494755554104e-02       2.793479178832e+03 
       7.774387128135e-02       2.622635384942e+03 
       8.058960974849e-02       2.466759592420e+03 
       8.349244573165e-02       2.327417043775e+03 
       8.645938882219e-02       2.205051298589e+03 
       8.949696423953e-02       2.098890089683e+03 
       9.261134346636e-02       2.006970384516e+03 
       9.580844005681e-02       1.926289514218e+03 
       9.909398069364e-02       1.853092965687e+03 
       1.024735582883e-01       1.783306614010e+03 
       1.059526718308e-01       1.713094843129e+03 
       1.095367563421e-01       1.639479498257e+03 
       1.132312053945e-01       1.560895540416e+03 
       1.170413880710e-01       1.477524624403e+03 
       1.209726618446e-01       1.391265270057e+03 
       1.250303825942e-01       1.305287409796e+03 
       1.292199128036e-01       1.223251094003e+03 
       1.335466288767e-01       1.148389178146e+03 
       1.380159284318e-01       1.082700446859e+03 
       1.426332383926e-01       1.026461597177e+03 
       1.474040246663e-01       9.781795390023e+02 
       1.523338041800e-01       9.350159116933e+02 
       1.574281600380e-01       8.936243221970e+02 
       1.626927605505e-01       8.512091168141e+02 
       1.681333828843e-01       8.064577634334e+02 
       1.737559420855e-01       7.599342292707e+02 
       1.795665262367e-01       7.136924011129e+02 
       1.855714385395e-01       6.702495721433e+02 
       1.917772471618e-01       6.314112725620e+02 
       1.981908437740e-01       5.975094267742e+02 
       2.048195118261e-01       5.673896424779e+02 
       2.116710058054e-01       5.391246579777e+02 
       2.187536429780e-01       5.110837008357e+02 
       2.260764094816e-01       4.827613409507e+02 
       2.336490831264e-01       4.548562141699e+02 
       2.414823759137e-01       4.285724759689e+02 
       2.495881001481e-01       4.046802795944e+02 
       2.579793631613e-01       3.830226235610e+02 
       2.666707971805e-01       3.627742790292e+02 
       2.756788328931e-01       3.431688594729e+02 
       2.850220279619e-01       3.240532353364e+02 
       2.947214654192e-01       3.058108654169e+02 
       3.048012418952e-01       2.888142315999e+02 
       3.152890726321e-01       2.730125664172e+02 
       3.262170500947e-01       2.580480126509e+02 
       3.376226071071e-01       2.436740401233e+02 
       3.495497560242e-01       2.299393050947e+02 
       3.620507059705e-01       2.169649815217e+02 
       3.751880064130e-01       2.046970893105e+02 
       3.890374368899e-01       1.929785089000e+02 
       4.036919762104e-01       1.817489525860e+02 
       4.192673693654e-01       1.710240060377e+02 
       4.359101209038e-01       1.607555176884e+02 
       4.538092828292e-01       1.508594517980e+02 
       4.732143780739e-01       1.412947175968e+02 
       4.944636334447e-01       1.320099773013e+02 
       5.180303219461e-01       1.229267286122e+02 
       5.446025989793e-01       1.139683733647e+02 
       5.752291099597e-01       1.050302157575e+02 
       6.116029471043e-01       9.597451322416e+01 
       6.566594248065e-01       8.660414492662e+01 
       7.159365229481e-01       7.662739967046e+01 
       8.007925200902e-01       6.563516762135e+01 
       9.345308927885e-01       5.334219559251e+01 
       1.148176377443e+00       4.078977708241e+01 
       1.442705024786e+00       3.045024386985e+01 
       1.816202126290e+00       2.263710332112e+01 
       2.286462786051e+00       1.667482531242e+01 
       2.878486104353e+00       1.209173357830e+01 
       3.623799304266e+00       8.586766517271e+00 
       4.562093031382e+00       5.949368927756e+00 
       5.743334848176e+00       4.012763162352e+00 
       7.230430188812e+00       2.632645047025e+00 
       9.102572302899e+00       1.681407029546e+00 
       1.145945958481e+01       1.048145370742e+00 
