# Matter power spectrum P(k) at redshift z=0
# for k=2.20891e-07 to 11.0845 h/Mpc,
# number of wavenumbers equal to 139
#    1:k (h/Mpc)              2:P (Mpc/h)^3        
       2.208913456093e-07       7.804896145256e-01 
       2.780857282329e-07       9.735026283308e-01 
       3.500891899297e-07       1.214247248826e+00 
       4.407361775970e-07       1.514527375603e+00 
       5.548539738739e-07       1.889065980984e+00 
       6.985197675448e-07       2.356226988771e+00 
       8.793842860027e-07       2.938915671194e+00 
       1.107079224381e-06       3.665701711202e+00 
       1.393730168443e-06       4.572219993770e+00 
       1.754602326237e-06       5.702917806992e+00 
       2.208913456093e-06       7.113234116662e+00 
       2.780857282329e-06       8.872317760239e+00 
       3.500891899297e-06       1.106641782547e+01 
       4.407361775970e-06       1.380311242510e+01 
       5.548539738739e-06       1.721658316413e+01 
       6.985197675448e-06       2.147419383041e+01 
       8.793842860027e-06       2.678469570306e+01 
       1.107079224381e-05       3.340846146185e+01 
       1.393730168443e-05       4.167024884041e+01 
       1.754602326237e-05       5.197511856278e+01 
       2.208913456093e-05       6.482828452544e+01 
       2.780857282329e-05       8.085986455634e+01 
       3.500891899297e-05       1.008557355157e+02 
       4.407361775970e-05       1.257959863225e+02 
       5.548539738739e-05       1.569028162665e+02 
       6.985197675448e-05       1.957001523258e+02 
       8.793842860027e-05       2.440877617237e+02 
       1.107079224381e-04       3.044332065794e+02 
       1.393730168443e-04       3.796855919251e+02 
       1.754602326237e-04       4.735156131150e+02 
       2.208913456093e-04       5.904867436990e+02 
       2.780857282329e-04       7.362622227600e+02 
       3.500891899297e-04       9.178513690756e+02 
       4.407361775970e-04       1.143896220181e+03 
       5.548539738739e-04       1.424995404509e+03 
       6.985197675448e-04       1.774056452044e+03 
       8.793842860027e-04       2.206656971103e+03 
       1.107079224381e-03       2.741363710744e+03 
       1.393730168443e-03       3.399890281715e+03 
       1.754602326237e-03       4.206867063781e+03 
       2.208913456093e-03       5.189209648178e+03 
       2.780857282329e-03       6.374333432514e+03 
       3.500891899297e-03       7.787044909829e+03 
       4.407361775970e-03       9.401825290686e+03 
       5.548539738739e-03       1.128342329927e+04 
       6.985197675448e-03       1.337441953232e+04 
       8.793842860027e-03       1.560023367599e+04 
       1.107079224381e-02       1.782008735878e+04 
       1.393730168443e-02       1.980565653023e+04 
       1.754602326182e-02       2.123344263392e+04 
       2.208913290520e-02       2.172530658504e+04 
       2.780786718444e-02       2.099315940285e+04 
       3.494805604144e-02       1.912616606452e+04 
       4.277604121776e-02       1.702743709136e+04 
       4.870013432491e-02       1.577889529185e+04 
       5.317248414560e-02       1.505582338371e+04 
       5.697632041890e-02       1.455726314231e+04 
       6.042906731169e-02       1.416456551098e+04 
       6.368080352668e-02       1.381934368020e+04 
       6.681454247324e-02       1.348756379115e+04 
       6.988166299089e-02       1.314778728808e+04 
       7.291673550865e-02       1.278674734445e+04 
       7.594459634914e-02       1.239753778556e+04 
       7.898407284684e-02       1.197876014221e+04 
       8.205009923075e-02       1.153392345928e+04 
       8.515499244716e-02       1.107075564459e+04 
       8.830925938954e-02       1.060026967594e+04 
       9.152212816487e-02       1.013555639162e+04 
       9.480190929438e-02       9.690365210095e+03 
       9.815624797638e-02       9.277597012769e+03 
       1.015923041888e-01       8.907848878841e+03 
       1.051168835661e-01       8.588134232070e+03 
       1.087365338125e-01       8.320867027560e+03 
       1.124576164305e-01       8.103176069984e+03 
       1.162863604238e-01       7.926638331033e+03 
       1.202289026322e-01       7.777595137865e+03 
       1.242913180536e-01       7.638297312928e+03 
       1.284796426466e-01       7.489126939605e+03 
       1.327998905345e-01       7.311937301059e+03 
       1.372580671516e-01       7.094084500535e+03 
       1.418601796163e-01       6.832122066493e+03 
       1.466122454540e-01       6.533749877061e+03 
       1.515203006834e-01       6.216860696010e+03 
       1.565904082120e-01       5.905502680120e+03 
       1.618286674450e-01       5.623816417427e+03 
       1.672412259862e-01       5.389744763284e+03 
       1.728342942907e-01       5.210171482698e+03 
       1.786141641189e-01       5.078513274498e+03 
       1.845872316338e-01       4.975442800366e+03 
       1.907600259810e-01       4.873497273606e+03 
       1.971392441963e-01       4.745806144696e+03 
       2.037317933057e-01       4.576893412592e+03 
       2.105448405187e-01       4.370409683257e+03 
       2.175858724863e-01       4.148294688544e+03 
       2.248627647062e-01       3.940512043362e+03 
       2.323838623181e-01       3.770747918717e+03 
       2.401580737777e-01       3.645491072677e+03 
       2.481949792247e-01       3.551172086729e+03 
       2.565049558178e-01       3.460860011861e+03 
       2.650993229182e-01       3.349188133985e+03 
       2.739905108135e-01       3.208425497184e+03 
       2.831922577464e-01       3.053551146948e+03 
       2.927198414287e-01       2.910420585861e+03 
       3.025903531031e-01       2.796120975986e+03 
       3.128230247252e-01       2.707006065329e+03 
       3.234396232170e-01       2.622909848661e+03 
       3.344649303461e-01       2.525014152557e+03 
       3.459273331194e-01       2.413021387692e+03 
       3.578595584373e-01       2.303659437197e+03 
       3.702995983008e-01       2.211239695897e+03 
       3.832918899512e-01       2.132418836006e+03 
       3.968888418334e-01       2.052199280750e+03 
       4.111528359014e-01       1.963879073156e+03 
       4.261588972405e-01       1.876577509977e+03 
       4.419983163647e-01       1.799203670928e+03 
       4.587836606347e-01       1.726659802858e+03 
       4.766558600051e-01       1.650796224559e+03 
       4.957944749049e-01       1.575175282285e+03 
       5.164329977001e-01       1.504722287709e+03 
       5.388824009118e-01       1.434624472958e+03 
       5.635687540071e-01       1.363534309042e+03 
       5.910959912576e-01       1.294208902604e+03 
       6.223561583529e-01       1.223487368174e+03 
       6.587351224522e-01       1.151500962714e+03 
       7.025244939345e-01       1.076190228841e+03 
       7.578140412445e-01       9.954102206812e+02 
       8.325695492322e-01       9.048623223155e+02 
       9.434374780050e-01       7.975992950364e+02 
       1.122242530581e+00       6.654677143218e+02 
       1.396180592270e+00       5.164623182308e+02 
       1.756775705069e+00       3.780130533210e+02 
       2.211638989093e+00       2.634452002195e+02 
       2.784288503040e+00       1.763275866840e+02 
       3.505211550237e+00       1.144341506769e+02 
       4.412799894308e+00       7.261025848659e+01 
       5.555385924107e+00       4.533822984166e+01 
       6.993816512182e+00       2.799196447298e+01 
       8.804693332612e+00       1.714680123538e+01 
       1.108445217948e+01       1.044588754216e+01 
