# Matter power spectrum P(k) at redshift z=1.5
# for k=1.72737e-07 to 10.9103 h/Mpc,
# number of wavenumbers equal to 140
#    1:k (h/Mpc)              2:P (Mpc/h)^3        
       1.727369138677e-07       3.867814336571e-01 
       2.174628904230e-07       4.855742166223e-01 
       2.737695588757e-07       6.096009247644e-01 
       3.446554546443e-07       7.653068765852e-01 
       4.338955101652e-07       9.607836707785e-01 
       5.462420838104e-07       1.206189683313e+00 
       6.876780403003e-07       1.514277968143e+00 
       8.657353600668e-07       1.901058994511e+00 
       1.089896244677e-06       2.386632660021e+00 
       1.372098078643e-06       2.996232813316e+00 
       1.727369138677e-06       3.761538563617e+00 
       2.174628904230e-06       4.722320505641e+00 
       2.737695588757e-06       5.928507392885e+00 
       3.446554546443e-06       7.442780606446e+00 
       4.338955101652e-06       9.343831154773e+00 
       5.462420838104e-06       1.173044828225e+01 
       6.876780403003e-06       1.472665178991e+01 
       8.657353600669e-06       1.848813405246e+01 
       1.089896244677e-05       2.321034505613e+01 
       1.372098078643e-05       2.913863774485e+01 
       1.727369138677e-05       3.658099514125e+01 
       2.174628904230e-05       4.592398928126e+01 
       2.737695588757e-05       5.765277861479e+01 
       3.446554546443e-05       7.237613809249e+01 
       4.338955101652e-05       9.085773332428e+01 
       5.462420838104e-05       1.140550869380e+02 
       6.876780403003e-05       1.431679115947e+02 
       8.657353600669e-05       1.796976304267e+02 
       1.089896244677e-04       2.255198227116e+02 
       1.372098078643e-04       2.829707238067e+02 
       1.727369138677e-04       3.549472182921e+02 
       2.174628904230e-04       4.450160328286e+02 
       2.737695588757e-04       5.575206200289e+02 
       3.446554546443e-04       6.976619687675e+02 
       4.338955101652e-04       8.715123765723e+02 
       5.462420838104e-04       1.085905225228e+03 
       6.876780403003e-04       1.348145700991e+03 
       8.657353600669e-04       1.665518407857e+03 
       1.089896244677e-03       2.044557573106e+03 
       1.372098078643e-03       2.489820940600e+03 
       1.727369138677e-03       3.001763566113e+03 
       2.174628904230e-03       3.574119692372e+03 
       2.737695588757e-03       4.191386029248e+03 
       3.446554546443e-03       4.826726993435e+03 
       4.338955101652e-03       5.440566150926e+03 
       5.462420838104e-03       5.981272732432e+03 
       6.876780403003e-03       6.388057901734e+03 
       8.657353600669e-03       6.595588503216e+03 
       1.089896244677e-02       6.540169733576e+03 
       1.372098078643e-02       6.168753350440e+03 
       1.727369138668e-02       5.455990447774e+03 
       2.174628859986e-02       4.437676582495e+03 
       2.737669113704e-02       3.257375936204e+03 
       3.443542322218e-02       2.179547465234e+03 
       4.255191214308e-02       1.499546123722e+03 
       4.906922791091e-02       1.250158702123e+03 
       5.386485492258e-02       1.157862222062e+03 
       5.787214515420e-02       1.106616131330e+03 
       6.147524179424e-02       1.064248799979e+03 
       6.484952375022e-02       1.019006072538e+03 
       6.808952783720e-02       9.663941272627e+02 
       7.125268591146e-02       9.055150268641e+02 
       7.437709739610e-02       8.376209243060e+02 
       7.748982510103e-02       7.652855327941e+02 
       8.061119149099e-02       6.917659473868e+02 
       8.375718762608e-02       6.204521308364e+02 
       8.694091080138e-02       5.544083771627e+02 
       9.017346658348e-02       4.960391747105e+02 
       9.346455840335e-02       4.469031435435e+02 
       9.682288613930e-02       4.076683100935e+02 
       1.002564231849e-01       3.781703755853e+02 
       1.037726135070e-01       3.575173618606e+02 
       1.073785144110e-01       3.441934135345e+02 
       1.110809014714e-01       3.361510322425e+02 
       1.148863464743e-01       3.309289606115e+02 
       1.188012757167e-01       3.258623275062e+02 
       1.228320137772e-01       3.184326059848e+02 
       1.269848164187e-01       3.067313203278e+02 
       1.312658953281e-01       2.899120018370e+02 
       1.356814367617e-01       2.684427923054e+02 
       1.402376157416e-01       2.440058727627e+02 
       1.449406071675e-01       2.190283562594e+02 
       1.497965950233e-01       1.960024146108e+02 
       1.548117807374e-01       1.768480773453e+02 
       1.599923916823e-01       1.625192581640e+02 
       1.653446907475e-01       1.528995608241e+02 
       1.708749878942e-01       1.469157713551e+02 
       1.765896545785e-01       1.428092478515e+02 
       1.824951419182e-01       1.385829750644e+02 
       1.885980034702e-01       1.326160392407e+02 
       1.949049234810e-01       1.242546709982e+02 
       2.014227514778e-01       1.140420971787e+02 
       2.081585440831e-01       1.033836731401e+02 
       2.151196149713e-01       9.381599060503e+01 
       2.223135939477e-01       8.630791814293e+01 
       2.297484962392e-01       8.092909450444e+01 
       2.374328032369e-01       7.695015602593e+01 
       2.453755561666e-01       7.327604976518e+01 
       2.535864644821e-01       6.903875812512e+01 
       2.620760312176e-01       6.404997849467e+01 
       2.708556981290e-01       5.880139998782e+01 
       2.799380142441e-01       5.401132656827e+01 
       2.893368324870e-01       5.009146081504e+01 
       2.990675404231e-01       4.692514220324e+01 
       3.091473330046e-01       4.405649013034e+01 
       3.195955376381e-01       4.109881220274e+01 
       3.304340051765e-01       3.802124145250e+01 
       3.416875848989e-01       3.507517823170e+01 
       3.533847076653e-01       3.247739920898e+01 
       3.655581099699e-01       3.020109986793e+01 
       3.782457436809e-01       2.806306270205e+01 
       3.914919335825e-01       2.595593617458e+01 
       4.053488701558e-01       2.393473758939e+01 
       4.198785627333e-01       2.208326330299e+01 
       4.351554354507e-01       2.038375155076e+01 
       4.512698374459e-01       1.876697379710e+01 
       4.683328805723e-01       1.722145344742e+01 
       4.864832500925e-01       1.577497675502e+01 
       5.058970258423e-01       1.441849268646e+01 
       5.268022363946e-01       1.312559022612e+01 
       5.495011132741e-01       1.189759578577e+01 
       5.744053750645e-01       1.073021441145e+01 
       6.020945876492e-01       9.609659970734e+00 
       6.334176126281e-01       8.529971626820e+00 
       6.696796044577e-01       7.479678199873e+00 
       7.130112101376e-01       6.446493871094e+00 
       7.671563911723e-01       5.414599373473e+00 
       8.392860658513e-01       4.365712161562e+00 
       9.442602492991e-01       3.285677171856e+00 
       1.111797645694e+00       2.207992216673e+00 
       1.374996425657e+00       1.309330949911e+00 
       1.729186042953e+00       7.403158820493e-01 
       2.176887677584e+00       4.149074844376e-01 
       2.740539131456e+00       2.312094728381e-01 
       3.450134354573e+00       1.281733473547e-01 
       4.343461813076e+00       7.071486751105e-02 
       5.468094451639e+00       3.884240958566e-02 
       6.883923059260e+00       2.124837656146e-02 
       8.666345672138e+00       1.157956382554e-02 
       1.091028279405e+01       6.287944249087e-03 
