# Matter power spectrum P(k) at redshift z=1
# for k=2.36491e-07 to 11.8648 h/Mpc,
# number of wavenumbers equal to 139
#    1:k (h/Mpc)              2:P (Mpc/h)^3        
       2.364912130759e-07       3.859074844936e-01 
       2.977247978073e-07       4.782920930317e-01 
       3.748133136809e-07       5.927931832706e-01 
       4.718620052717e-07       7.347053465801e-01 
       5.940390692967e-07       9.105906766710e-01 
       7.478508799362e-07       1.128582204101e+00 
       9.414884769843e-07       1.398759971367e+00 
       1.185263768587e-06       1.733617138574e+00 
       1.492158677953e-06       2.148637671391e+00 
       1.878516478104e-06       2.663012324875e+00 
       2.364912130759e-06       3.300526025148e+00 
       2.977247978073e-06       4.090657682164e+00 
       3.748133136809e-06       5.069943280018e+00 
       4.718620052717e-06       6.283665260837e+00 
       5.940390692967e-06       7.787946291539e+00 
       7.478508799362e-06       9.652344175491e+00 
       9.414884769843e-06       1.196306779175e+01 
       1.185263768587e-05       1.482696254998e+01 
       1.492158677953e-05       1.837644923639e+01 
       1.878516478104e-05       2.277564379363e+01 
       2.364912130759e-05       2.822793940436e+01 
       2.977247978073e-05       3.498539828323e+01 
       3.748133136809e-05       4.336038122725e+01 
       4.718620052717e-05       5.373994041785e+01 
       5.940390692967e-05       6.660361697369e+01 
       7.478508799362e-05       8.254541925097e+01 
       9.414884769843e-05       1.023009061613e+02 
       1.185263768587e-04       1.267804489091e+02 
       1.492158677953e-04       1.571098618409e+02 
       1.878516478104e-04       1.946796130575e+02 
       2.364912130759e-04       2.412036197215e+02 
       2.977247978073e-04       2.987879770790e+02 
       3.748133136809e-04       3.700085132320e+02 
       4.718620052717e-04       4.579933755038e+02 
       5.940390692967e-04       5.665027198134e+02 
       7.478508799362e-04       6.999926530587e+02 
       9.414884769843e-04       8.636467070878e+02 
       1.185263768587e-03       1.063354106093e+03 
       1.492158677953e-03       1.305591996560e+03 
       1.878516478104e-03       1.597102503056e+03 
       2.364912130759e-03       1.944223478458e+03 
       2.977247978073e-03       2.351836024492e+03 
       3.748133136809e-03       2.821827241546e+03 
       4.718620052717e-03       3.351018878721e+03 
       5.940390692967e-03       3.928503938927e+03 
       7.478508799362e-03       4.532520170272e+03 
       9.414884769843e-03       5.127299372531e+03 
       1.185263768587e-02       5.660224320776e+03 
       1.492158677953e-02       6.060802681224e+03 
       1.878516478101e-02       6.244720034697e+03 
       2.364912112120e-02       6.130191810406e+03 
       2.977233749004e-02       5.676712628262e+03 
       3.746159097969e-02       4.946333356430e+03 
       4.652790108820e-02       4.173272428514e+03 
       5.418181715869e-02       3.690213388278e+03 
       5.973085726043e-02       3.426277745444e+03 
       6.430518756057e-02       3.245258374201e+03 
       6.838863080441e-02       3.099518854495e+03 
       7.219670569334e-02       2.969314459865e+03 
       7.584341476688e-02       2.844993829800e+03 
       7.939708523235e-02       2.721637677709e+03 
       8.290258412978e-02       2.597037050604e+03 
       8.639152398471e-02       2.470757966722e+03 
       8.988748504101e-02       2.343599537194e+03 
       9.340891629190e-02       2.217197797748e+03 
       9.697085406231e-02       2.093681327890e+03 
       1.005859938942e-01       1.975349439690e+03 
       1.042653877275e-01       1.864371992337e+03 
       1.080189133076e-01       1.762523786048e+03 
       1.118555993958e-01       1.670967855195e+03 
       1.157838564347e-01       1.590101350078e+03 
       1.198116432983e-01       1.519474275502e+03 
       1.239465896480e-01       1.457790702750e+03 
       1.281960867108e-01       1.403003887821e+03 
       1.325673551327e-01       1.352518953951e+03 
       1.370674959041e-01       1.303509094138e+03 
       1.417035286398e-01       1.253330633137e+03 
       1.464824203590e-01       1.199983922530e+03 
       1.514111071639e-01       1.142524209507e+03 
       1.564965107098e-01       1.081300884444e+03 
       1.617455510335e-01       1.017919879435e+03 
       1.671651570809e-01       9.548924898022e+02 
       1.727622761369e-01       8.950330382038e+02 
       1.785438832706e-01       8.407568160122e+02 
       1.845169918488e-01       7.934649094349e+02 
       1.906886661380e-01       7.531774175951e+02 
       1.970660369931e-01       7.185173893774e+02 
       2.036563216135e-01       6.870829814363e+02 
       2.104668483397e-01       6.561649093475e+02 
       2.175050874582e-01       6.236405606289e+02 
       2.247786889845e-01       5.887305747909e+02 
       2.322955284100e-01       5.522578866010e+02 
       2.400637614369e-01       5.162217368438e+02 
       2.480918887888e-01       4.828456987969e+02 
       2.563888322958e-01       4.535527348879e+02 
       2.649640236214e-01       4.283579692001e+02 
       2.738275072443e-01       4.059597583560e+02 
       2.829900596515e-01       3.844905080758e+02 
       2.924633271777e-01       3.625579455857e+02 
       3.022599855640e-01       3.399794192737e+02 
       3.123939251605e-01       3.177198771133e+02 
       3.228804668316e-01       2.970729508350e+02 
       3.337366151101e-01       2.786959494143e+02 
       3.449813571311e-01       2.622083080037e+02 
       3.566360185048e-01       2.466140469745e+02 
       3.687246908314e-01       2.311657132716e+02 
       3.812747503517e-01       2.159135935424e+02 
       3.943174938141e-01       2.014596436274e+02 
       4.078889267882e-01       1.882233940737e+02 
       4.220307525667e-01       1.760178619487e+02 
       4.367916283029e-01       1.643488856781e+02 
       4.522287820059e-01       1.530069792458e+02 
       4.684101240792e-01       1.421970267719e+02 
       4.854170477969e-01       1.321068613039e+02 
       5.033482071706e-01       1.226024585424e+02 
       5.223247099827e-01       1.134738441737e+02 
       5.424974073336e-01       1.047342272939e+02 
       5.640573705448e-01       9.645462307006e+01 
       5.872513584408e-01       8.854645528509e+01 
       6.124053649441e-01       8.092855262695e+01 
       6.399617653355e-01       7.360802686172e+01 
       6.705403934675e-01       6.652612311960e+01 
       7.050439745206e-01       5.962189003947e+01 
       7.448508734363e-01       5.284292246237e+01 
       7.921920248999e-01       4.610286286140e+01 
       8.509468625798e-01       3.929876834193e+01 
       9.284595959133e-01       3.229197178730e+01 
       1.039831088385e+00       2.494650225488e+01 
       1.215896780424e+00       1.738222223087e+01 
       1.496243164517e+00       1.067545800713e+01 
       1.880496108929e+00       6.177486724901e+00 
       2.367344017733e+00       3.526877204326e+00 
       2.980309316760e+00       1.996189412946e+00 
       3.751987133757e+00       1.121070485860e+00 
       4.723471947412e+00       6.251727619311e-01 
       5.946498866493e+00       3.464025376044e-01 
       7.486198534234e+00       1.908187101072e-01 
       9.424565572483e+00       1.045527597519e-01 
       1.186482509432e+01       5.700520127954e-02 
