# Matter power spectrum P(k) at redshift z=0
# for k=2.0417e-07 to 10.2446 h/Mpc,
# number of wavenumbers equal to 139
#    1:k (h/Mpc)              2:P (Mpc/h)^3        
       2.041702171830e-07       7.921883923520e-01 
       2.570350747432e-07       9.927467507624e-01 
       3.235879873166e-07       1.244080474211e+00 
       4.073731401842e-07       1.559044362881e+00 
       5.128523982602e-07       1.953747666524e+00 
       6.456429166694e-07       2.448378013055e+00 
       8.128162747400e-07       3.068233930677e+00 
       1.023275063390e-06       3.845018772584e+00 
       1.288226980557e-06       4.818462222316e+00 
       1.621781681982e-06       6.038352312702e+00 
       2.041702171830e-06       7.567081881053e+00 
       2.570350747432e-06       9.482839696191e+00 
       3.235879873166e-06       1.188360945126e+01 
       4.073731401842e-06       1.489218111738e+01 
       5.128523982602e-06       1.866243089726e+01 
       6.456429166694e-06       2.338719082536e+01 
       8.128162747400e-06       2.930811021981e+01 
       1.023275063390e-05       3.672801277568e+01 
       1.288226980557e-05       4.602638015303e+01 
       1.621781681982e-05       5.767875166452e+01 
       2.041702171830e-05       7.228102769361e+01 
       2.570350747432e-05       9.057991072714e+01 
       3.235879873166e-05       1.135110228386e+02 
       4.073731401842e-05       1.422466132672e+02 
       5.128523982602e-05       1.782552250171e+02 
       6.456429166694e-05       2.233762316398e+02 
       8.128162747400e-05       2.799127792729e+02 
       1.023275063390e-04       3.507473437694e+02 
       1.288226980557e-04       4.394847533550e+02 
       1.621781681982e-04       5.506279493486e+02 
       2.041702171830e-04       6.897916064890e+02 
       2.570350747432e-04       8.639574127236e+02 
       3.235879873166e-04       1.081771488464e+03 
       4.073731401842e-04       1.353878359685e+03 
       5.128523982602e-04       1.693277182138e+03 
       6.456429166694e-04       2.115675370849e+03 
       8.128162747400e-04       2.639796964909e+03 
       1.023275063390e-03       3.287548303573e+03 
       1.288226980557e-03       4.083822990387e+03 
       1.621781681982e-03       5.055655900971e+03 
       2.041702171830e-03       6.230444349855e+03 
       2.570350747432e-03       7.632716511581e+03 
       3.235879873166e-03       9.279010489769e+03 
       4.073731401842e-03       1.117055454226e+04 
       5.128523982602e-03       1.328290503156e+04 
       6.456429166694e-03       1.555288593660e+04 
       8.128162747400e-03       1.786336247709e+04 
       1.023275063390e-02       2.002730992696e+04 
       1.288226980557e-02       2.177714371415e+04 
       1.621781681953e-02       2.277474113114e+04 
       2.041702070683e-02       2.267590230616e+04 
       2.570302707647e-02       2.129535902037e+04 
       3.231352569502e-02       1.887572780976e+04 
       3.968479419532e-02       1.641304841209e+04 
       4.535971563005e-02       1.497530068049e+04 
       4.960729946002e-02       1.413289063088e+04 
       5.320019404592e-02       1.352418532615e+04 
       5.645183434186e-02       1.301688421332e+04 
       5.950876177009e-02       1.255134168254e+04 
       6.245137356484e-02       1.209666485407e+04 
       6.532913604229e-02       1.163655043433e+04 
       6.817518277206e-02       1.116368503594e+04 
       7.101323161328e-02       1.067705181476e+04 
       7.386120778415e-02       1.018028496773e+04 
       7.673329331089e-02       9.680371964348e+03 
       7.964115873352e-02       9.186432452212e+03 
       8.259474034134e-02       8.708495459790e+03 
       8.560275057488e-02       8.256291678913e+03 
       8.867302441059e-02       7.838124122020e+03 
       9.181276091355e-02       7.459893254485e+03 
       9.502869548333e-02       7.124347425794e+03 
       9.832722490097e-02       6.830619001235e+03 
       1.017144993806e-01       6.574102868858e+03 
       1.051964910191e-01       6.346740635444e+03 
       1.087790450291e-01       6.137783901558e+03 
       1.124679182139e-01       5.935083211918e+03 
       1.162688078915e-01       5.726865444512e+03 
       1.201873736439e-01       5.503798233718e+03 
       1.242292537207e-01       5.260940428772e+03 
       1.284000775581e-01       4.999032227266e+03 
       1.327054756298e-01       4.724607986032e+03 
       1.371510876906e-01       4.448677619495e+03 
       1.417425703659e-01       4.184162015337e+03 
       1.464856049793e-01       3.942699264384e+03 
       1.513859064664e-01       3.731664603916e+03 
       1.564492341986e-01       3.552193721909e+03 
       1.616814055258e-01       3.398766071081e+03 
       1.670883128337e-01       3.260623034026e+03 
       1.726759449042e-01       3.124936939171e+03 
       1.784504133686e-01       2.981057892595e+03 
       1.844179850416e-01       2.824408899515e+03 
       1.905851209474e-01       2.658218876135e+03 
       1.969585228787e-01       2.491935043392e+03 
       2.035451883945e-01       2.336793971208e+03 
       2.103524752631e-01       2.200623271573e+03 
       2.173881765050e-01       2.084380068609e+03 
       2.246606074143e-01       1.982073405996e+03 
       2.321787062381e-01       1.884197656741e+03 
       2.399521506151e-01       1.783084414841e+03 
       2.479914924344e-01       1.677156249719e+03 
       2.563083145217e-01       1.571211027738e+03 
       2.649154135491e-01       1.472410441474e+03 
       2.738270148701e-01       1.384919390545e+03 
       2.830590267130e-01       1.307185044391e+03 
       2.926293434788e-01       1.233780156877e+03 
       3.025582109973e-01       1.160194478345e+03 
       3.128686708291e-01       1.086401776395e+03 
       3.235871065199e-01       1.015937685923e+03 
       3.347439228450e-01       9.516401101264e+02 
       3.463744005882e-01       8.927069082867e+02 
       3.585197859715e-01       8.361313929882e+02 
       3.712286981109e-01       7.804553574808e+02 
       3.845589740994e-01       7.269898871246e+02 
       3.985801265007e-01       6.771705079923e+02 
       4.133766740690e-01       6.302716494138e+02 
       4.290527440035e-01       5.848664755293e+02 
       4.457385700165e-01       5.410739413613e+02 
       4.635998935924e-01       4.995418937427e+02 
       4.828519484295e-01       4.597259855015e+02 
       5.037809365185e-01       4.210858371618e+02 
       5.267782507925e-01       3.838070966372e+02 
       5.523974154870e-01       3.475332748754e+02 
       5.814537587112e-01       3.119226787234e+02 
       6.152096513037e-01       2.767074373840e+02 
       6.557437306715e-01       2.413744334718e+02 
       7.067468983599e-01       2.053131927616e+02 
       7.753692732106e-01       1.677054028136e+02 
       8.765186847178e-01       1.278742758483e+02 
       1.039178051930e+00       8.722827009041e+01 
       1.290575926919e+00       5.310350106832e+01 
       1.623671038535e+00       3.105768395460e+01 
       2.044067075690e+00       1.796065396016e+01 
       2.573327953106e+00       1.029559871508e+01 
       3.239627953036e+00       5.855084102984e+00 
       4.078449954835e+00       3.305902860565e+00 
       5.134464288873e+00       1.854416925475e+00 
       6.463907569212e+00       1.034036139016e+00 
       8.137577498370e+00       5.734499698295e-01 
       1.024460310314e+01       3.164319817657e-01 
