# Matter power spectrum P(k) at redshift z=2
# for k=2.30268e-07 to 11.5543 h/Mpc,
# number of wavenumbers equal to 139
#    1:k (h/Mpc)              2:P (Mpc/h)^3        
       2.302677217492e-07       1.763311966242e-01 
       2.898898864260e-07       2.191185546374e-01 
       3.649497446438e-07       2.722884088630e-01 
       4.594445075599e-07       3.383601070209e-01 
       5.784063658764e-07       4.204643247126e-01 
       7.281704723453e-07       5.224914064234e-01 
       9.167123117537e-07       6.492757015245e-01 
       1.154072424571e-06       8.068246298996e-01 
       1.452891102344e-06       1.002603330755e+00 
       1.829081529310e-06       1.245888382531e+00 
       2.302677217492e-06       1.548207351744e+00 
       2.898898864260e-06       1.923884998492e+00 
       3.649497446438e-06       2.390722016837e+00 
       4.594445075599e-06       2.970838463612e+00 
       5.784063658764e-06       3.691721832888e+00 
       7.281704723453e-06       4.587529415660e+00 
       9.167123117537e-06       5.700706617099e+00 
       1.154072424571e-05       7.083997833600e+00 
       1.452891102344e-05       8.802945031191e+00 
       1.829081529310e-05       1.093899210347e+01 
       2.302677217492e-05       1.359334155417e+01 
       2.898898864260e-05       1.689174507812e+01 
       3.649497446438e-05       2.099045281882e+01 
       4.594445075599e-05       2.608359878749e+01 
       5.784063658764e-05       3.241236371601e+01 
       7.281704723453e-05       4.027633255031e+01 
       9.167123117537e-05       5.004755125258e+01 
       1.154072424571e-04       6.218788371555e+01 
       1.452891102344e-04       7.727036351995e+01 
       1.829081529310e-04       9.600530450620e+01 
       2.302677217492e-04       1.192719303117e+02 
       2.898898864260e-04       1.481561150044e+02 
       3.649497446438e-04       1.839943369642e+02 
       4.594445075599e-04       2.284228965940e+02 
       5.784063658764e-04       2.834295677198e+02 
       7.281704723453e-04       3.514020780131e+02 
       9.167123117537e-04       4.351647640071e+02 
       1.154072424571e-03       5.379926918831e+02 
       1.452891102344e-03       6.635895206324e+02 
       1.829081529310e-03       8.159964663267e+02 
       2.302677217492e-03       9.993516161024e+02 
       2.898898864260e-03       1.217415608459e+03 
       3.649497446438e-03       1.472855447263e+03 
       4.594445075599e-03       1.766201077820e+03 
       5.784063658764e-03       2.091730631424e+03 
       7.281704723453e-03       2.444843883440e+03 
       9.167123117537e-03       2.807219745486e+03 
       1.154072424571e-02       3.152070035091e+03 
       1.452891102344e-02       3.440645823740e+03 
       1.829081529271e-02       3.623321480515e+03 
       2.302677088518e-02       3.648122451781e+03 
       2.898839540371e-02       3.483173062623e+03 
       3.644051236576e-02       3.154526718576e+03 
       4.471010955121e-02       2.798642214636e+03 
       5.104317831549e-02       2.578521659576e+03 
       5.579530649409e-02       2.442221774643e+03 
       5.982157474155e-02       2.340058567302e+03 
       6.346864254420e-02       2.253373786244e+03 
       6.689912304782e-02       2.173675003396e+03 
       7.020244751347e-02       2.096548650280e+03 
       7.343373717826e-02       2.019649868027e+03 
       7.662996281230e-02       1.941893272922e+03 
       7.981761745242e-02       1.863059595394e+03 
       8.301674160703e-02       1.783558153076e+03 
       8.624320296143e-02       1.704245166894e+03 
       8.951006780068e-02       1.626258682549e+03 
       9.282846709477e-02       1.550856783908e+03 
       9.620816561728e-02       1.479258521240e+03 
       9.965794838608e-02       1.412495226919e+03 
       1.031858902688e-01       1.351280759040e+03 
       1.067995483021e-01       1.295911668245e+03 
       1.105061013509e-01       1.246207004945e+03 
       1.143124529394e-01       1.201497518773e+03 
       1.182253077274e-01       1.160673817645e+03 
       1.222512287555e-01       1.122300890606e+03 
       1.263966804378e-01       1.084800998673e+03 
       1.306680608808e-01       1.046692449247e+03 
       1.350717261875e-01       1.006852950461e+03 
       1.396140087889e-01       9.647536197757e+02 
       1.443012314390e-01       9.205982401175e+02 
       1.491397182371e-01       8.753095565856e+02 
       1.541358038638e-01       8.303394766925e+02 
       1.592958421017e-01       7.873315724173e+02 
       1.646262146407e-01       7.477136772458e+02 
       1.701333411201e-01       7.123267475588e+02 
       1.758236913332e-01       6.811918656580e+02 
       1.817038005012e-01       6.534899469192e+02 
       1.877802885102e-01       6.277852798460e+02 
       1.940598839992e-01       6.024642732632e+02 
       2.005494541816e-01       5.762777374490e+02 
       2.072560412902e-01       5.487928141504e+02 
       2.141869065540e-01       5.205423300441e+02 
       2.213495826532e-01       4.927639215245e+02 
       2.287519356733e-01       4.668207293966e+02 
       2.364022376872e-01       4.435711833845e+02 
       2.443092512700e-01       4.229916379926e+02 
       2.524823274977e-01       4.042386705139e+02 
       2.609315193241e-01       3.861325858555e+02 
       2.696677127062e-01       3.678194604136e+02 
       2.787027784793e-01       3.492253673995e+02 
       2.880497488261e-01       3.309976594522e+02 
       2.977230233012e-01       3.139678834319e+02 
       3.077386108445e-01       2.985307077186e+02 
       3.181144161730e-01       2.843986661163e+02 
       3.288705815520e-01       2.709005363289e+02 
       3.400298984558e-01       2.575598179184e+02 
       3.516183084098e-01       2.444427334652e+02 
       3.636655188817e-01       2.319662356354e+02 
       3.762057692773e-01       2.203933649138e+02 
       3.892787951044e-01       2.095643450782e+02 
       4.029310571044e-01       1.991300596450e+02 
       4.172173295976e-01       1.889637780649e+02 
       4.322027832692e-01       1.792228368478e+02 
       4.479657600968e-01       1.700248975216e+02 
       4.646015355416e-01       1.612508334199e+02 
       4.822275189061e-01       1.527487448686e+02 
       5.009905989201e-01       1.445372156117e+02 
       5.210777761562e-01       1.366554203549e+02 
       5.427319873068e-01       1.290178893666e+02 
       5.662764217630e-01       1.215605701310e+02 
       5.921532985772e-01       1.142752079503e+02 
       6.209884388659e-01       1.070890048637e+02 
       6.537044106038e-01       9.993126457038e+01 
       6.917310518189e-01       9.271354268181e+01 
       7.374256605022e-01       8.530092018742e+01 
       7.949801787272e-01       7.749790592170e+01 
       8.725283291509e-01       6.900551181956e+01 
       9.870409513799e-01       5.941727283902e+01 
       1.171356756434e+00       4.856447383728e+01 
       1.455507209392e+00       3.778891538008e+01 
       1.831251262631e+00       2.892314857398e+01 
       2.305394779149e+00       2.187676034190e+01 
       2.902320040141e+00       1.623539554088e+01 
       3.653804451684e+00       1.174969356777e+01 
       4.599867273952e+00       8.256058744100e+00 
       5.790889802059e+00       5.618686587932e+00 
       7.290298328711e+00       3.703893106447e+00 
       9.177941825575e+00       2.371747897379e+00 
       1.155434419219e+01       1.481720155404e+00 
