# Matter power spectrum P(k) at redshift z=2
# for k=2.10329e-07 to 10.5529 h/Mpc,
# number of wavenumbers equal to 139
#    1:k (h/Mpc)              2:P (Mpc/h)^3        
       2.103286999927e-07       2.027501087544e-01 
       2.647881452505e-07       2.519132990548e-01 
       3.333485247976e-07       3.129976630271e-01 
       4.196609288519e-07       3.888938669305e-01 
       5.283218076687e-07       4.831935107306e-01 
       6.651177492792e-07       6.003590910084e-01 
       8.373336364029e-07       7.459351778374e-01 
       1.054140593018e-06       9.268107968490e-01 
       1.327084380154e-06       1.151545433960e+00 
       1.670700249771e-06       1.430774090140e+00 
       2.103286999927e-06       1.777710550933e+00 
       2.647881452505e-06       2.208772686360e+00 
       3.333485247976e-06       2.744359368202e+00 
       4.196609288519e-06       3.409815757783e+00 
       5.283218076687e-06       4.236632630217e+00 
       6.651177492792e-06       5.263936453178e+00 
       8.373336364029e-06       6.540340666472e+00 
       1.054140593018e-05       8.126245628121e+00 
       1.327084380154e-05       1.009669582124e+01 
       1.670700249771e-05       1.254492896132e+01 
       2.103286999927e-05       1.558678398113e+01 
       2.647881452505e-05       1.936617439660e+01 
       3.333485247976e-05       2.406188209532e+01 
       4.196609288519e-05       2.989598514144e+01 
       5.283218076687e-05       3.714430292799e+01 
       6.651177492792e-05       4.614932246897e+01 
       8.373336364029e-05       5.733615786691e+01 
       1.054140593018e-04       7.123218121925e+01 
       1.327084380154e-04       8.849102617713e+01 
       1.670700249771e-04       1.099216584782e+02 
       2.103286999927e-04       1.365230418124e+02 
       2.647881452505e-04       1.695244377024e+02 
       3.333485247976e-04       2.104302917511e+02 
       4.196609288519e-04       2.610665921923e+02 
       5.283218076687e-04       3.236221923736e+02 
       6.651177492792e-04       4.006740845943e+02 
       8.373336364029e-04       4.951817633470e+02 
       1.054140593018e-03       6.104356630491e+02 
       1.327084380154e-03       7.499443821484e+02 
       1.670700249771e-03       9.172165266674e+02 
       2.103286999927e-03       1.115319994508e+03 
       2.647881452505e-03       1.346140517489e+03 
       3.333485247976e-03       1.609432264233e+03 
       4.196609288519e-03       1.901610964898e+03 
       5.283218076687e-03       2.214291912606e+03 
       6.651177492792e-03       2.531648127618e+03 
       8.373336364029e-03       2.833197335252e+03 
       1.054140593018e-02       3.087379155956e+03 
       1.327084380154e-02       3.255398967053e+03 
       1.670700249769e-02       3.293788006364e+03 
       2.103286990968e-02       3.164388617789e+03 
       2.647873453543e-02       2.855773552578e+03 
       3.332224532563e-02       2.414374599879e+03 
       4.149506814857e-02       1.972660768818e+03 
       4.863193813329e-02       1.704846427848e+03 
       5.376982198067e-02       1.567617044807e+03 
       5.796678718280e-02       1.477537482109e+03 
       6.169537355839e-02       1.406544547468e+03 
       6.516286477353e-02       1.343530904269e+03 
       6.847756867440e-02       1.283273788336e+03 
       7.170383235507e-02       1.223232778429e+03 
       7.488363214938e-02       1.162371165714e+03 
       7.804639029828e-02       1.100613996015e+03 
       8.121395931654e-02       1.038532477307e+03 
       8.440337435135e-02       9.771120150761e+02 
       8.762847597557e-02       9.175531778027e+02 
       9.090091845622e-02       8.610915543771e+02 
       9.423082349921e-02       8.088375316525e+02 
       9.762721927022e-02       7.616430799004e+02 
       1.010983439001e-01       7.200019034751e+02 
       1.046518603791e-01       6.839870952663e+02 
       1.082950116869e-01       6.532279262552e+02 
       1.120347344999e-01       6.269275952377e+02 
       1.158777434888e-01       6.039269982171e+02 
       1.198305942967e-01       5.828207876381e+02 
       1.238997307953e-01       5.621301870560e+02 
       1.280915206051e-01       5.405235589965e+02 
       1.324122817998e-01       5.170540215165e+02 
       1.368683030142e-01       4.913594710361e+02 
       1.414658587048e-01       4.637586629291e+02 
       1.462112210001e-01       4.351930653723e+02 
       1.511106693716e-01       4.070069543877e+02 
       1.561704992244e-01       3.806151756385e+02 
       1.613970304207e-01       3.571484324870e+02 
       1.667966166940e-01       3.371718613683e+02 
       1.723756568827e-01       3.205461793832e+02 
       1.781406088866e-01       3.064659538617e+02 
       1.840980072378e-01       2.936807769936e+02 
       1.902544851686e-01       2.808704382170e+02 
       1.966168020527e-01       2.670829344705e+02 
       2.031918770990e-01       2.520726300562e+02 
       2.099868301905e-01       2.363654944918e+02 
       2.170090307906e-01       2.209870562012e+02 
       2.242661558988e-01       2.069710626562e+02 
       2.317662581317e-01       1.948903261318e+02 
       2.395178451529e-01       1.846306725630e+02 
       2.475299718935e-01       1.755026749631e+02 
       2.558123473068e-01       1.666361247062e+02 
       2.643754578232e-01       1.574605811700e+02 
       2.732307102362e-01       1.479911532014e+02 
       2.823905975063e-01       1.387258451788e+02 
       2.918688919707e-01       1.302311645412e+02 
       3.016808717682e-01       1.227296359617e+02 
       3.118435880433e-01       1.159867010865e+02 
       3.223761828216e-01       1.095538513344e+02 
       3.333002705816e-01       1.031501497332e+02 
       3.446404007835e-01       9.684926519894e+01 
       3.564246244257e-01       9.091755167251e+01 
       3.686851957734e-01       8.549748455372e+01 
       3.814594517673e-01       8.047653100203e+01 
       3.947909279015e-01       7.565321313477e+01 
       4.087307930433e-01       7.096913426544e+01 
       4.233397207992e-01       6.651760408072e+01 
       4.386903681661e-01       6.235643916609e+01 
       4.548707143787e-01       5.841840297164e+01 
       4.719886430419e-01       5.462905803944e+01 
       4.901783624872e-01       5.100125469938e+01 
       5.096096145157e-01       4.755372740377e+01 
       5.305012376931e-01       4.424686501716e+01 
       5.531417607597e-01       4.105330490545e+01 
       5.779217873146e-01       3.797144437048e+01 
       6.053870495522e-01       3.497405655573e+01 
       6.363295973558e-01       3.203566435983e+01 
       6.719536628019e-01       2.912894955504e+01 
       7.141981027276e-01       2.621338154936e+01 
       7.664128227841e-01       2.323597305451e+01 
       8.348934042571e-01       2.012075455014e+01 
       9.325131854451e-01       1.677117386117e+01 
       1.085810177167e+00       1.315377545966e+01 
       1.331522621235e+00       9.632475942847e+00 
       1.672579219550e+00       6.920102420512e+00 
       2.105572270816e+00       5.029659079199e+00 
       2.650758091404e+00       3.687654414812e+00 
       3.337106721570e+00       2.708031743987e+00 
       4.201168453653e+00       1.977074573149e+00 
       5.288957725532e+00       1.425004806729e+00 
       6.658403282578e+00       1.007931660757e+00 
       8.382433094411e+00       6.965050354326e-01 
       1.055285803522e+01       4.689674936132e-01 
