# Matter power spectrum P(k) at redshift z=0
# for k=1.96293e-07 to 12.3998 h/Mpc,
# number of wavenumbers equal to 140
#    1:k (h/Mpc)              2:P (Mpc/h)^3        
       1.962927550905e-07       1.098970858481e+00 
       2.471179375346e-07       1.375676048961e+00 
       3.111030512724e-07       1.722051659954e+00 
       3.916555369336e-07       2.155639709232e+00 
       4.930651081155e-07       2.698399043744e+00 
       6.207321942757e-07       3.377817433646e+00 
       7.814555332924e-07       4.228303674975e+00 
       9.837942290490e-07       5.292930202628e+00 
       1.238523554926e-06       6.625614465783e+00 
       1.559208776402e-06       8.293849537827e+00 
       1.962927550905e-06       1.038212224408e+01 
       2.471179375346e-06       1.299619190527e+01 
       3.111030512724e-06       1.626844636789e+01 
       3.916555369336e-06       2.036460652685e+01 
       4.930651081155e-06       2.549211879248e+01 
       6.207321942757e-06       3.191066034935e+01 
       7.814555332924e-06       3.994528886547e+01 
       9.837942290490e-06       5.000290188071e+01 
       1.238523554926e-05       6.259283798253e+01 
       1.559208776402e-05       7.835266021577e+01 
       1.962927550905e-05       9.808042176289e+01 
       2.471179375346e-05       1.227750365746e+02 
       3.111030512724e-05       1.536867769299e+02 
       3.916555369336e-05       1.923804106371e+02 
       4.930651081156e-05       2.408140869675e+02 
       6.207321942757e-05       3.014377918665e+02 
       7.814555332924e-05       3.773160146885e+02 
       9.837942290490e-05       4.722801646818e+02 
       1.238523554926e-04       5.911171433923e+02 
       1.559208776402e-04       7.398010947126e+02 
       1.962927550905e-04       9.257752828810e+02 
       2.471179375346e-04       1.158289554812e+03 
       3.111030512724e-04       1.448794897857e+03 
       3.916555369336e-04       1.811389253170e+03 
       4.930651081156e-04       2.263298018105e+03 
       6.207321942757e-04       2.825359463730e+03 
       7.814555332924e-04       3.522462923275e+03 
       9.837942290490e-04       4.383819883917e+03 
       1.238523554926e-03       5.442797444128e+03 
       1.559208776402e-03       6.735940845385e+03 
       1.962927550905e-03       8.300783117066e+03 
       2.471179375346e-03       1.017177493771e+04 
       3.111030512724e-03       1.237373934708e+04 
       3.916555369336e-03       1.491213479900e+04 
       4.930651081156e-03       1.767883959890e+04 
       6.207321942757e-03       2.071567486903e+04 
       7.814555332924e-03       2.381034319307e+04 
       9.837942290490e-03       2.670326810688e+04 
       1.238523554926e-02       2.901522054707e+04 
       1.559208776370e-02       3.025860668385e+04 
       1.962927444378e-02       2.993196523368e+04 
       2.471129970236e-02       2.777103717735e+04 
       3.106464213886e-02       2.416499167713e+04 
       3.812382379422e-02       2.063823565054e+04 
       4.353717748109e-02       1.869144465354e+04 
       4.759654384534e-02       1.762111085861e+04 
       5.103441903265e-02       1.689603684203e+04 
       5.414780437644e-02       1.632200726595e+04 
       5.707590025996e-02       1.580943906021e+04 
       5.989521407237e-02       1.530981084668e+04 
       6.265288013002e-02       1.479549688138e+04 
       6.538050135876e-02       1.425208835331e+04 
       6.810071797653e-02       1.367494362869e+04 
       7.083065210998e-02       1.306720969252e+04 
       7.358385806642e-02       1.243823328014e+04 
       7.637149528248e-02       1.180191779770e+04 
       7.920306891747e-02       1.117489411360e+04 
       8.208691642796e-02       1.057455057425e+04 
       8.503053791377e-02       1.001706821235e+04 
       8.804082656211e-02       9.515634107696e+03 
       9.112423301615e-02       9.078980266131e+03 
       9.428688472859e-02       8.710336282727e+03 
       9.753467383612e-02       8.406833512032e+03 
       1.008733225103e-01       8.159395676800e+03 
       1.043084318742e-01       7.953210999420e+03 
       1.078455187389e-01       7.768968496429e+03 
       1.114900432205e-01       7.585072312192e+03 
       1.152474295070e-01       7.380903213652e+03 
       1.191230815229e-01       7.140804786976e+03 
       1.231223948855e-01       6.857917310532e+03 
       1.272507663209e-01       6.536552949334e+03 
       1.315136015500e-01       6.191899504378e+03 
       1.359163225614e-01       5.846636608194e+03 
       1.404643751217e-01       5.525255698745e+03 
       1.451632373385e-01       5.247789648578e+03 
       1.500184300654e-01       5.024732683457e+03 
       1.550355299213e-01       4.854293419423e+03 
       1.602201856904e-01       4.722479310283e+03 
       1.655781388557e-01       4.606341477553e+03 
       1.711152490237e-01       4.480553003018e+03 
       1.768375249974e-01       4.326294889751e+03 
       1.827511622718e-01       4.139122323216e+03 
       1.888625877627e-01       3.931197442182e+03 
       1.951785126351e-01       3.725544087553e+03 
       2.017059941979e-01       3.544964675701e+03 
       2.084525079758e-01       3.401552361428e+03 
       2.154260312800e-01       3.291705355440e+03 
       2.226351398950e-01       3.198474359100e+03 
       2.300891199003e-01       3.100632171145e+03 
       2.377980971852e-01       2.984900108133e+03 
       2.457731879350e-01       2.853912317253e+03 
       2.540266743153e-01       2.723202080657e+03 
       2.625722108396e-01       2.608965542645e+03 
       2.714250685694e-01       2.516344404687e+03 
       2.806024265233e-01       2.436828368034e+03 
       2.901237226613e-01       2.356244654693e+03 
       3.000110808846e-01       2.267195962472e+03 
       3.102898360962e-01       2.174803549473e+03 
       3.209891871922e-01       2.089697865326e+03 
       3.321430189400e-01       2.016107043081e+03 
       3.437909496581e-01       1.948270358918e+03 
       3.559796849911e-01       1.878558157796e+03 
       3.687647929796e-01       1.806926102543e+03 
       3.822130688312e-01       1.739120272320e+03 
       3.964057407545e-01       1.676999260015e+03 
       4.114429008631e-01       1.616378641422e+03 
       4.274497632276e-01       1.554978876693e+03 
       4.445857210372e-01       1.495379194725e+03 
       4.630578245550e-01       1.438127685401e+03 
       4.831414888849e-01       1.380736309830e+03 
       5.052135099309e-01       1.323399760396e+03 
       5.298070314554e-01       1.266236558674e+03 
       5.577078345122e-01       1.207662879883e+03 
       5.901334445009e-01       1.147179639343e+03 
       6.290904917866e-01       1.082933857218e+03 
       6.781459609214e-01       1.012538855277e+03 
       7.442181096996e-01       9.316860120718e+02 
       8.417391098258e-01       8.331807999152e+02 
       9.986697467562e-01       7.084509462855e+02 
       1.240760538948e+00       5.647166455352e+02 
       1.561049740986e+00       4.284778130899e+02 
       1.965232975080e+00       3.111942039431e+02 
       2.474081704605e+00       2.168918464746e+02 
       3.114684328774e+00       1.459453612103e+02 
       3.921155251211e+00       9.546747341267e+01 
       4.936441989340e+00       6.109245696586e+01 
       6.214612264227e+00       3.845034027755e+01 
       7.823733303884e+00       2.390182359020e+01 
       9.849496671359e+00       1.472267469198e+01 
       1.239978165296e+01       9.007811410890e+00 
