# Matter power spectrum P(k) at redshift z=0
# for k=1.50211e-07 to 11.9452 h/Mpc,
# number of wavenumbers equal to 141
#    1:k (h/Mpc)              2:P (Mpc/h)^3        
       1.502106572118e-07       4.507037312667e+00 
       1.891040134863e-07       5.595271348842e+00 
       2.380678480501e-07       6.946261874173e+00 
       2.997096636415e-07       8.623452012997e+00 
       3.773121117185e-07       1.070560336610e+01 
       4.750078056202e-07       1.329049468435e+01 
       5.979993972958e-07       1.649951359106e+01 
       7.528366374933e-07       2.048335697496e+01 
       9.477651738700e-07       2.542910773593e+01 
       1.193165661798e-06       3.156902018615e+01 
       1.502106572118e-06       3.919142662825e+01 
       1.891040134863e-06       4.865427719537e+01 
       2.380678480501e-06       6.040194861875e+01 
       2.997096636415e-06       7.498611090897e+01 
       3.773121117185e-06       9.309163116932e+01 
       4.750078056202e-06       1.155687296614e+02 
       5.979993972958e-06       1.434728954656e+02 
       7.528366374933e-06       1.781144310020e+02 
       9.477651738700e-06       2.211199416158e+02 
       1.193165661798e-05       2.745086375362e+02 
       1.502106572118e-05       3.407869913716e+02 
       1.891040134863e-05       4.230661175254e+02 
       2.380678480501e-05       5.252072313585e+02 
       2.997096636415e-05       6.520017153669e+02 
       3.773121117185e-05       8.093936535508e+02 
       4.750078056202e-05       1.004754120151e+03 
       5.979993972958e-05       1.247217833278e+03 
       7.528366374933e-05       1.548093577400e+03 
       9.477651738700e-05       1.921359190531e+03 
       1.193165661798e-04       2.384248255673e+03 
       1.502106572118e-04       2.957926083633e+03 
       1.891040134863e-04       3.668232804667e+03 
       2.380678480501e-04       4.546436460733e+03 
       2.997096636415e-04       5.629887410286e+03 
       3.773121117185e-04       6.962407843820e+03 
       4.750078056202e-04       8.594211574674e+03 
       5.979993972958e-04       1.058111022306e+04 
       7.528366374933e-04       1.298250309618e+04 
       9.477651738700e-04       1.585695009636e+04 
       1.193165661798e-03       1.925400364472e+04 
       1.502106572118e-03       2.320196674979e+04 
       1.891040134863e-03       2.769079427340e+04 
       2.380678480501e-03       3.265173497471e+04 
       2.997096636415e-03       3.793533757718e+04 
       3.773121117185e-03       4.328681111606e+04 
       4.750078056202e-03       4.832954108342e+04 
       5.979993972958e-03       5.255481252513e+04 
       7.528366374933e-03       5.532651756194e+04 
       9.477651738700e-03       5.591259508145e+04 
       1.193165661798e-02       5.358663143706e+04 
       1.502106567508e-02       4.788758197788e+04 
       1.891035662102e-02       3.912591168171e+04 
       2.379924223552e-02       2.897556480356e+04 
       2.967193175310e-02       2.054841787518e+04 
       3.489368850947e-02       1.645642652861e+04 
       3.864255984184e-02       1.488286108614e+04 
       4.168976992666e-02       1.409002608136e+04 
       4.438985378066e-02       1.356111306441e+04 
       4.689710265540e-02       1.310009607080e+04 
       4.929160850291e-02       1.261526708323e+04 
       5.162073305875e-02       1.206254729246e+04 
       5.391526460664e-02       1.142621821637e+04 
       5.619672402457e-02       1.071035871882e+04 
       5.848105913215e-02       9.933438275710e+03 
       6.078067823129e-02       9.123615716205e+03 
       6.310564607495e-02       8.314069538878e+03 
       6.546442543683e-02       7.538441809908e+03 
       6.786435713429e-02       6.826795777576e+03 
       7.031198194446e-02       6.202569486838e+03 
       7.281326290013e-02       5.680668815073e+03 
       7.537374253791e-02       5.266862779130e+03 
       7.799865633008e-02       4.957961627337e+03 
       8.069301578002e-02       4.742448104390e+03 
       8.346167000019e-02       4.601250093394e+03 
       8.630935170466e-02       4.508777414894e+03 
       8.924071171615e-02       4.434774195550e+03 
       9.226034490171e-02       4.347660675483e+03 
       9.537280967166e-02       4.219577291371e+03 
       9.858264265983e-02       4.032331780453e+03 
       1.018943698583e-01       3.782360130676e+03 
       1.053125152513e-01       3.482420010312e+03 
       1.088416078416e-01       3.158610665976e+03 
       1.124861878654e-01       2.843274191269e+03 
       1.162508129270e-01       2.566281784863e+03 
       1.201400647487e-01       2.347793081977e+03 
       1.241585572035e-01       2.194365181973e+03 
       1.283109462839e-01       2.098393865003e+03 
       1.326019426514e-01       2.040090119394e+03 
       1.370363274015e-01       1.992003131001e+03 
       1.416189716776e-01       1.926711756485e+03 
       1.463548607679e-01       1.826570819978e+03 
       1.512491233272e-01       1.691117327558e+03 
       1.563070663897e-01       1.536925596066e+03 
       1.615342168764e-01       1.388925471705e+03 
       1.669363703710e-01       1.268221623998e+03 
       1.725196480417e-01       1.183232001406e+03 
       1.782905627389e-01       1.127493740212e+03 
       1.842560955182e-01       1.083832541339e+03 
       1.904237841336e-01       1.033440005888e+03 
       1.968018254525e-01       9.664316557589e+02 
       2.033991942790e-01       8.871856451439e+02 
       2.102257817896e-01       8.096695687611e+02 
       2.172925577223e-01       7.463894028229e+02 
       2.246117617155e-01       6.999136846544e+02 
       2.321971308476e-01       6.625685762612e+02 
       2.400641726618e-01       6.236403021131e+02 
       2.482304959736e-01       5.784840343030e+02 
       2.567162158942e-01       5.314975658808e+02 
       2.655444552400e-01       4.901007050350e+02 
       2.747419725774e-01       4.566510914223e+02 
       2.843399587061e-01       4.269591109734e+02 
       2.943750601951e-01       3.961775740508e+02 
       3.048907134852e-01       3.645267256848e+02 
       3.159389107091e-01       3.355884728707e+02 
       3.275825765249e-01       3.103919213786e+02 
       3.398988272709e-01       2.864728956374e+02 
       3.529835333055e-01       2.625516444282e+02 
       3.669578558370e-01       2.400909897361e+02 
       3.819778631692e-01       2.195128439082e+02 
       3.982491108912e-01       1.995653845052e+02 
       4.160495332749e-01       1.803599016386e+02 
       4.357668739303e-01       1.622168438746e+02 
       4.579628788216e-01       1.445422923668e+02 
       4.834897512926e-01       1.274212585489e+02 
       5.137158490728e-01       1.105574692632e+02 
       5.509975404768e-01       9.376101630214e+01 
       5.997463953076e-01       7.670982507563e+01 
       6.689558054568e-01       5.911097290876e+01 
       7.772398680797e-01       4.117480439483e+01 
       9.513028608964e-01       2.514784456739e+01 
       1.194572156377e+00       1.431882274954e+01 
       1.503806863266e+00       8.042084250883e+00 
       1.893180346826e+00       4.485485158554e+00 
       2.383372847503e+00       2.486222079256e+00 
       3.000488643502e+00       1.370227691169e+00 
       3.777391401104e+00       7.512317168774e-01 
       4.755454025142e+00       4.098874899393e-01 
       5.986761916871e+00       2.226501865341e-01 
       7.536886711510e+00       1.204440962749e-01 
       9.488378206934e+00       6.490311747210e-02 
       1.194516044142e+01       3.484593986328e-02 
