# Matter power spectrum P(k) at redshift z=1.5
# for k=2.10254e-07 to 10.5491 h/Mpc,
# number of wavenumbers equal to 139
#    1:k (h/Mpc)              2:P (Mpc/h)^3        
       2.102535388843e-07       2.417578862932e-01 
       2.646935230211e-07       3.010028791192e-01 
       3.332294024686e-07       3.747664020413e-01 
       4.195109627248e-07       4.666063543036e-01 
       5.281330115004e-07       5.809525308985e-01 
       6.648800689853e-07       7.233202884867e-01 
       8.370344146410e-07       9.005765721996e-01 
       1.053763895138e-06       1.121271134286e+00 
       1.326610145620e-06       1.396048920496e+00 
       1.670103223865e-06       1.738163514827e+00 
       2.102535388843e-06       2.164116407002e+00 
       2.646935230211e-06       2.694452913841e+00 
       3.332294024686e-06       3.354753143603e+00 
       4.195109627248e-06       4.176865790309e+00 
       5.281330115004e-06       5.200444254314e+00 
       6.648800689853e-06       6.474859152913e+00 
       8.370344146410e-06       8.061579404303e+00 
       1.053763895138e-05       1.003713661717e+01 
       1.326610145620e-05       1.249681552921e+01 
       1.670103223865e-05       1.555924803490e+01 
       2.102535388843e-05       1.937213146097e+01 
       2.646935230211e-05       2.411934509215e+01 
       3.332294024686e-05       3.002980459751e+01 
       4.195109627248e-05       3.738847438686e+01 
       5.281330115004e-05       4.655005508567e+01 
       6.648800689853e-05       5.795597893256e+01 
       8.370344146410e-05       7.215547886819e+01 
       1.053763895138e-04       8.983164193475e+01 
       1.326610145620e-04       1.118334972641e+02 
       1.670103223865e-04       1.392152861389e+02 
       2.102535388843e-04       1.732840394709e+02 
       2.646935230211e-04       2.156563042559e+02 
       3.332294024686e-04       2.683240766581e+02 
       4.195109627248e-04       3.337283814839e+02 
       5.281330115004e-04       4.148361814470e+02 
       6.648800689853e-04       5.152125366769e+02 
       8.370344146410e-04       6.390762519403e+02 
       1.053763895138e-03       7.913243351134e+02 
       1.326610145620e-03       9.775004487322e+02 
       1.670103223865e-03       1.203640823919e+03 
       2.102535388843e-03       1.475870800375e+03 
       2.646935230211e-03       1.799678629773e+03 
       3.332294024686e-03       2.178812804251e+03 
       4.195109627248e-03       2.613633788756e+03 
       5.281330115004e-03       3.098758284516e+03 
       6.648800689853e-03       3.619962917352e+03 
       8.370344146410e-03       4.150417047587e+03 
       1.053763895138e-02       4.646429655463e+03 
       1.326610145620e-02       5.044080447975e+03 
       1.670103223848e-02       5.260541028457e+03 
       2.102535322045e-02       5.208897844006e+03 
       2.646899614969e-02       4.839387890027e+03 
       3.328605531753e-02       4.209825594007e+03 
       4.101232056785e-02       3.570273214423e+03 
       4.708211606372e-02       3.205345405190e+03 
       5.158543404492e-02       3.006524780984e+03 
       5.537177851810e-02       2.872445816446e+03 
       5.878745001523e-02       2.766541434475e+03 
       6.199243483816e-02       2.672326680820e+03 
       6.507373828757e-02       2.581031186834e+03 
       6.808455401173e-02       2.487729058512e+03 
       7.106034057338e-02       2.389868843366e+03 
       7.402638215949e-02       2.286609505795e+03 
       7.700172641634e-02       2.178441172015e+03 
       8.000140215519e-02       2.066892466579e+03 
       8.303774750764e-02       1.954243957334e+03 
       8.612124563722e-02       1.843221701125e+03 
       8.926107225720e-02       1.736674918863e+03 
       9.246546648439e-02       1.637256490890e+03 
       9.574198904248e-02       1.547131610265e+03 
       9.909770614158e-02       1.467736992840e+03 
       1.025393228333e-01       1.399606676036e+03 
       1.060732811018e-01       1.342274247852e+03 
       1.097058327653e-01       1.294261366467e+03 
       1.134430940231e-01       1.253169722612e+03 
       1.172910864145e-01       1.215901402431e+03 
       1.212557676093e-01       1.179031040150e+03 
       1.253430545590e-01       1.139325030224e+03 
       1.295588409523e-01       1.094346601001e+03 
       1.339090105193e-01       1.043015215949e+03 
       1.383994474728e-01       9.859416829004e+02 
       1.430360452004e-01       9.253812956538e+02 
       1.478247142128e-01       8.647490235298e+02 
       1.527713902809e-01       8.077941527511e+02 
       1.578820436521e-01       7.576574212820e+02 
       1.631626902092e-01       7.160682230662e+02 
       1.686194054151e-01       6.828806111861e+02 
       1.742583418778e-01       6.560629454160e+02 
       1.800857513608e-01       6.321997308670e+02 
       1.861080120610e-01       6.074932657746e+02 
       1.923316619811e-01       5.790676524403e+02 
       1.987634392389e-01       5.461007096665e+02 
       2.054103301927e-01       5.101820406095e+02 
       2.122796263217e-01       4.745791892789e+02 
       2.193789909060e-01       4.427023195628e+02 
       2.267165367009e-01       4.165309367285e+02 
       2.343009160293e-01       3.957541068200e+02 
       2.421414250226e-01       3.780080694649e+02 
       2.502481241756e-01       3.601617744066e+02 
       2.586319779508e-01       3.400997978520e+02 
       2.673050169391e-01       3.179532695769e+02 
       2.762805270928e-01       2.958338945069e+02 
       2.855732718913e-01       2.761822211408e+02 
       2.951997550757e-01       2.599777726263e+02 
       3.051785339582e-01       2.461463607300e+02 
       3.155305965022e-01       2.325848900481e+02 
       3.262798196993e-01       2.180047458919e+02 
       3.374535327319e-01       2.029647909116e+02 
       3.490832167163e-01       1.890490053712e+02 
       3.612053845819e-01       1.770716877590e+02 
       3.738627015438e-01       1.662897975053e+02 
       3.871054313577e-01       1.554624276268e+02 
       4.009933304115e-01       1.444124582912e+02 
       4.155981678044e-01       1.340149219087e+02 
       4.310071368734e-01       1.247037759607e+02 
       4.473275629334e-01       1.158624397619e+02 
       4.646935405146e-01       1.070142859068e+02 
       4.832755199744e-01       9.856002942304e+01 
       5.032945404984e-01       9.070520261846e+01 
       5.250440399017e-01       8.303069552756e+01 
       5.489245203302e-01       7.554572539205e+01 
       5.755010531772e-01       6.838401464141e+01 
       6.056035849376e-01       6.130660538076e+01 
       6.405125788886e-01       5.435441051614e+01 
       6.823272645094e-01       4.738155967358e+01 
       7.347554398745e-01       4.029847993095e+01 
       8.049389697316e-01       3.293855301276e+01 
       9.077257429936e-01       2.517151776136e+01 
       1.072428160648e+00       1.723124814871e+01 
       1.329180061712e+00       1.048197302600e+01 
       1.671935941556e+00       6.097719434445e+00 
       2.104822811812e+00       3.505883796209e+00 
       2.649814872914e+00       1.997948443289e+00 
       3.335919280043e+00       1.129550570257e+00 
       4.199673553341e+00       6.339954000529e-01 
       5.287075757540e+00       3.535175047578e-01 
       6.656034025249e+00       1.959437944286e-01 
       8.379450376152e+00       1.080112886384e-01 
       1.054910301541e+01       5.924042296371e-02 
