# Matter power spectrum P(k) at redshift z=0.5
# for k=2.35008e-07 to 11.791 h/Mpc,
# number of wavenumbers equal to 139
#    1:k (h/Mpc)              2:P (Mpc/h)^3        
       2.350080358829e-07       3.203357373068e-01 
       2.958575883489e-07       4.018235552737e-01 
       3.724626362445e-07       5.040404510660e-01 
       4.689026777121e-07       6.322595398762e-01 
       5.903134966300e-07       7.930953251690e-01 
       7.431606618326e-07       9.948449243295e-01 
       9.355838422269e-07       1.247916095506e+00 
       1.177830273843e-06       1.565364147258e+00 
       1.482800462522e-06       1.963565427440e+00 
       1.866735182889e-06       2.463062134728e+00 
       2.350080358829e-06       3.089622031692e+00 
       2.958575883489e-06       3.875567724688e+00 
       3.724626362445e-06       4.861444077128e+00 
       4.689026777121e-06       6.098109758875e+00 
       5.903134966300e-06       7.649360800459e+00 
       7.431606618326e-06       9.595221437907e+00 
       9.355838422269e-06       1.203607189832e+01 
       1.177830273843e-05       1.509782584156e+01 
       1.482800462522e-05       1.893842409104e+01 
       1.866735182889e-05       2.375597875461e+01 
       2.350080358829e-05       2.979898606315e+01 
       2.958575883489e-05       3.737913123095e+01 
       3.724626362445e-05       4.688733881305e+01 
       4.689026777121e-05       5.881388251273e+01 
       5.903134966300e-05       7.377356395616e+01 
       7.431606618326e-05       9.253720414983e+01 
       9.355838422269e-05       1.160709630248e+02 
       1.177830273843e-04       1.455853005834e+02 
       1.482800462522e-04       1.825956845507e+02 
       1.866735182889e-04       2.289973592254e+02 
       2.350080358829e-04       2.871564685286e+02 
       2.958575883489e-04       3.600193048522e+02 
       3.724626362445e-04       4.512400217560e+02 
       4.689026777121e-04       5.653243248467e+02 
       5.903134966300e-04       7.077822463922e+02 
       7.431606618326e-04       8.852777435304e+02 
       9.355838422269e-04       1.105756948263e+03 
       1.177830273843e-03       1.378522873268e+03 
       1.482800462522e-03       1.714177366195e+03 
       1.866735182889e-03       2.124278705370e+03 
       2.350080358829e-03       2.620581739242e+03 
       2.958575883489e-03       3.213722620920e+03 
       3.724626362445e-03       3.911102305427e+03 
       4.689026777121e-03       4.713869487697e+03 
       5.903134966300e-03       5.592719845595e+03 
       7.431606618326e-03       6.554001363724e+03 
       9.355838422269e-03       7.538472103734e+03 
       1.177830273843e-02       8.474992006335e+03 
       1.482800462522e-02       9.265034584932e+03 
       1.866735182872e-02       9.787792888083e+03 
       2.350080288600e-02       9.921093035786e+03 
       2.958537839396e-02       9.589044516528e+03 
       3.720634963510e-02       8.835998025974e+03 
       4.586183073606e-02       7.936501351208e+03 
       5.268149840054e-02       7.317316515171e+03 
       5.773524046701e-02       6.912810399837e+03 
       6.198080647905e-02       6.598468987399e+03 
       6.580902269781e-02       6.327417280083e+03 
       6.940015061241e-02       6.079230203195e+03 
       7.285210291281e-02       5.843861734769e+03 
       7.622468956258e-02       5.616296115627e+03 
       7.955775305411e-02       5.394355813044e+03 
       8.287968851434e-02       5.177613454232e+03 
       8.621187776113e-02       4.966738373557e+03 
       8.957118495790e-02       4.763029637257e+03 
       9.297145050825e-02       4.568038352547e+03 
       9.642443068753e-02       4.383244273622e+03 
       9.994041304592e-02       4.209781608624e+03 
       1.035286331327e-01       4.048221476601e+03 
       1.071975645724e-01       3.898424979926e+03 
       1.109551256064e-01       3.759482554101e+03 
       1.148088288612e-01       3.629753847209e+03 
       1.187658915009e-01       3.507018057884e+03 
       1.228333170866e-01       3.388733849756e+03 
       1.270179568237e-01       3.272390434951e+03 
       1.313265555503e-01       3.155906600794e+03 
       1.357657863088e-01       3.038006455658e+03 
       1.403422763408e-01       2.918482239888e+03 
       1.450626266840e-01       2.798257322030e+03 
       1.499334271077e-01       2.679197116769e+03 
       1.549612678292e-01       2.563679343933e+03 
       1.601527492617e-01       2.454008860869e+03 
       1.655144909177e-01       2.351820569352e+03 
       1.710531405173e-01       2.257634037034e+03 
       1.767753842956e-01       2.170698409223e+03 
       1.826879594761e-01       2.089201816290e+03 
       1.887976698587e-01       2.010822107366e+03 
       1.951114054515e-01       1.933476511097e+03 
       2.016361670751e-01       1.856019028497e+03 
       2.083790968575e-01       1.778598720972e+03 
       2.153475155469e-01       1.702492914413e+03 
       2.225489675855e-01       1.629458566364e+03 
       2.299912749277e-01       1.560890890014e+03 
       2.376826006552e-01       1.497191604372e+03 
       2.456315235550e-01       1.437654816888e+03 
       2.538471250008e-01       1.380920203651e+03 
       2.623390897241e-01       1.325740297287e+03 
       2.711178224151e-01       1.271616029091e+03 
       2.801945825697e-01       1.218916313917e+03 
       2.895816406426e-01       1.168432763205e+03 
       2.992924594228e-01       1.120716643950e+03 
       3.093419056814e-01       1.075688626912e+03 
       3.197464986367e-01       1.032775806953e+03 
       3.305247037708e-01       9.914017996852e+02 
       3.416972831780e-01       9.513820560549e+02 
       3.532877171855e-01       9.128999391990e+02 
       3.653227168293e-01       8.761581662843e+02 
       3.778328534201e-01       8.411006849685e+02 
       3.908533407164e-01       8.074687061134e+02 
       4.044250183462e-01       7.750553700691e+02 
       4.185956039921e-01       7.438259117069e+02 
       4.334213094559e-01       7.137961283743e+02 
       4.489689568601e-01       6.848886153455e+02 
       4.653187938366e-01       6.569633791927e+02 
       4.825683039431e-01       6.299224469411e+02 
       5.008374639200e-01       6.037044738007e+02 
       5.202761541863e-01       5.782149067237e+02 
       5.410748599027e-01       5.533309596606e+02 
       5.634805544650e-01       5.289358099630e+02 
       5.878210311707e-01       5.048957013243e+02 
       6.145435639170e-01       4.810406870655e+02 
       6.442790131524e-01       4.571648116390e+02 
       6.779535924324e-01       4.329976721328e+02 
       7.169956044807e-01       4.081638067621e+02 
       7.637452668726e-01       3.821108906133e+02 
       8.223330656964e-01       3.539721925841e+02 
       9.007088217000e-01       3.223238122963e+02 
       1.015393122494e+00       2.848952217792e+02 
       1.199063122842e+00       2.392790693567e+02 
       1.485702797666e+00       1.885893714842e+02 
       1.868769166310e+00       1.421907348039e+02 
       2.352617774517e+00       1.030169073105e+02 
       2.961770238469e+00       7.151690324302e+01 
       3.728647817082e+00       4.773475597545e+01 
       4.694089488555e+00       3.084453842950e+01 
       5.909508542378e+00       1.943345970307e+01 
       7.439630475215e+00       1.201313490401e+01 
       9.365939859606e+00       7.322699448792e+00 
       1.179101969459e+01       4.418318172130e+00 
