# Matter power spectrum P(k) at redshift z=0
# for k=2.21134e-07 to 11.0957 h/Mpc,
# number of wavenumbers equal to 139
#    1:k (h/Mpc)              2:P (Mpc/h)^3        
       2.211340602511e-07       6.800246303715e-01 
       2.783912878633e-07       8.490135917346e-01 
       3.504738667133e-07       1.059997015641e+00 
       4.412204569751e-07       1.323410701166e+00 
       5.554636454894e-07       1.652283786640e+00 
       6.992872986344e-07       2.062883205014e+00 
       8.803505503958e-07       2.575518288689e+00 
       1.108295679180e-06       3.215545321266e+00 
       1.395261594302e-06       4.014621723334e+00 
       1.756530277167e-06       5.012271906102e+00 
       2.211340602511e-06       6.257842241001e+00 
       2.783912878633e-06       7.812941836956e+00 
       3.504738667133e-06       9.754489840966e+00 
       4.412204569751e-06       1.217851996583e+01 
       5.554636454894e-06       1.520493037859e+01 
       6.992872986344e-06       1.898341379985e+01 
       8.803505503958e-06       2.370086094768e+01 
       1.108295679180e-05       2.959060315064e+01 
       1.395261594302e-05       3.694395057735e+01 
       1.756530277167e-05       4.612459535462e+01 
       2.211340602511e-05       5.758658916338e+01 
       2.783912878633e-05       7.189677893448e+01 
       3.504738667133e-05       8.976279930403e+01 
       4.412204569751e-05       1.120679845551e+02 
       5.554636454894e-05       1.399148837697e+02 
       6.992872986344e-05       1.746794466298e+02 
       8.803505503958e-05       2.180783932540e+02 
       1.108295679180e-04       2.722527741070e+02 
       1.395261594302e-04       3.398712194177e+02 
       1.756530277167e-04       4.242567674023e+02 
       2.211340602511e-04       5.295412439970e+02 
       2.783912878633e-04       6.608505979156e+02 
       3.504738667133e-04       8.245228863734e+02 
       4.412204569751e-04       1.028357293398e+03 
       5.554636454894e-04       1.281887592684e+03 
       6.992872986344e-04       1.596667049759e+03 
       8.803505503958e-04       1.986540245270e+03 
       1.108295679180e-03       2.467843057264e+03 
       1.395261594302e-03       3.059397952085e+03 
       1.756530277167e-03       3.782120038581e+03 
       2.211340602511e-03       4.658014514814e+03 
       2.783912878633e-03       5.708234112751e+03 
       3.504738667133e-03       6.949772725283e+03 
       4.412204569751e-03       8.390410699480e+03 
       5.554636454894e-03       9.975989289742e+03 
       6.992872986344e-03       1.173898251537e+04 
       8.803505503958e-03       1.357062781656e+04 
       1.108295679180e-02       1.533609038110e+04 
       1.395261594302e-02       1.683103139822e+04 
       1.756530277136e-02       1.778254375393e+04 
       2.211340495658e-02       1.789268784166e+04 
       2.783861797171e-02       1.696724142700e+04 
       3.499899075466e-02       1.514656553968e+04 
       4.299112203956e-02       1.321560263724e+04 
       4.915072424710e-02       1.208630163206e+04 
       5.375874817342e-02       1.144403470717e+04 
       5.765522489294e-02       1.099888738718e+04 
       6.118097949028e-02       1.064218326150e+04 
       6.449525209807e-02       1.032319998443e+04 
       6.768536383609e-02       1.001410642151e+04 
       7.080502198842e-02       9.698720055157e+03 
       7.389019104942e-02       9.368212878843e+03 
       7.696660972399e-02       9.019202717631e+03 
       8.005372699839e-02       8.652695500396e+03 
       8.316692809195e-02       8.273267760816e+03 
       8.631887197563e-02       7.888228236574e+03 
       8.952033524239e-02       7.506665123424e+03 
       9.278076619453e-02       7.138386285499e+03 
       9.610866083437e-02       6.792816250889e+03 
       9.951182503923e-02       6.477943112107e+03 
       1.029975614989e-01       6.199402816333e+03 
       1.065728054207e-01       5.959769225545e+03 
       1.102442244221e-01       5.758095202790e+03 
       1.140182928094e-01       5.589746947509e+03 
       1.179013471718e-01       5.446598302045e+03 
       1.218996281320e-01       5.317690629459e+03 
       1.260193117318e-01       5.190474831811e+03 
       1.302665330331e-01       5.052675897628e+03 
       1.346474039173e-01       4.894613307703e+03 
       1.391680266684e-01       4.711507198527e+03 
       1.438345046600e-01       4.505043116276e+03 
       1.486529512954e-01       4.283469850982e+03 
       1.536294982360e-01       4.059893753961e+03 
       1.587703038829e-01       3.849091621466e+03 
       1.640815630340e-01       3.663741742719e+03 
       1.695695186076e-01       3.511135156646e+03 
       1.752404763105e-01       3.391170441194e+03 
       1.811008231117e-01       3.296083391118e+03 
       1.871570503798e-01       3.212198032859e+03 
       1.934157825347e-01       3.123821297312e+03 
       1.998838120740e-01       3.018691234623e+03 
       2.065681418480e-01       2.893042901784e+03 
       2.134760354979e-01       2.753485887481e+03 
       2.206150770383e-01       2.614006693441e+03 
       2.279932406728e-01       2.489305627061e+03 
       2.356189720958e-01       2.387949491013e+03 
       2.435012827723e-01       2.308635203673e+03 
       2.516498590162e-01       2.241124630144e+03 
       2.600751881414e-01       2.171722737436e+03 
       2.687887045690e-01       2.091164074663e+03 
       2.778029595795e-01       2.000242532444e+03 
       2.871318194718e-01       1.908604472593e+03 
       2.967906983031e-01       1.827166832359e+03 
       3.067968332596e-01       1.760105474377e+03 
       3.171696132118e-01       1.702414944917e+03 
       3.279309743744e-01       1.644666871357e+03 
       3.391058815720e-01       1.581337436468e+03 
       3.507229199177e-01       1.515300353633e+03 
       3.628150305071e-01       1.453765966354e+03 
       3.754204361952e-01       1.400134133622e+03 
       3.885838214558e-01       1.350853323032e+03 
       4.023578565889e-01       1.300507523253e+03 
       4.168051957448e-01       1.248643131833e+03 
       4.320011379626e-01       1.199211046381e+03 
       4.480372335182e-01       1.153855620630e+03 
       4.650262666616e-01       1.109768056967e+03 
       4.831092903104e-01       1.065097073069e+03 
       5.024658027240e-01       1.021608294162e+03 
       5.233288837392e-01       9.799119434323e+02 
       5.460084367660e-01       9.382118243322e+02 
       5.709282200829e-01       8.965548055969e+02 
       5.986874497702e-01       8.551656950254e+02 
       6.301686123135e-01       8.128915845031e+02 
       6.667377840521e-01       7.694387143049e+02 
       7.106438048543e-01       7.235600038677e+02 
       7.658785917245e-01       6.736982396331e+02 
       8.401728985677e-01       6.170463541439e+02 
       9.496427409782e-01       5.490102915955e+02 
       1.125649079568e+00       4.642917733648e+02 
       1.397812730933e+00       3.679444340509e+02 
       1.758569210758e+00       2.773399148548e+02 
       2.213892384564e+00       1.997987838387e+02 
       2.787125346438e+00       1.379211452768e+02 
       3.508782924475e+00       9.185138601213e+01 
       4.417295988091e+00       5.946575529810e+01 
       5.561046170825e+00       3.768216936639e+01 
       7.000942340612e+00       2.350226571672e+01 
       8.813664219102e+00       1.448947804532e+01 
       1.109574585645e+01       8.858345037528e+00 
