# Matter power spectrum P(k) at redshift z=2
# for k=2.27105e-07 to 11.3939 h/Mpc,
# number of wavenumbers equal to 139
#    1:k (h/Mpc)              2:P (Mpc/h)^3        
       2.271054624752e-07       2.054816251915e-01 
       2.859088378674e-07       2.556248036178e-01 
       3.599379014478e-07       3.180042991317e-01 
       4.531349708004e-07       3.956061100269e-01 
       5.704631297133e-07       4.921449005567e-01 
       7.181705304877e-07       6.122418151295e-01 
       9.041231308326e-07       7.616456840922e-01 
       1.138223584796e-06       9.475082098202e-01 
       1.432938595203e-06       1.178726305051e+00 
       1.803962811042e-06       1.466367970902e+00 
       2.271054624752e-06       1.824202098002e+00 
       2.859088378674e-06       2.269357550543e+00 
       3.599379014478e-06       2.823143077906e+00 
       4.531349708004e-06       3.512067293804e+00 
       5.704631297133e-06       4.369107528967e+00 
       7.181705304877e-06       5.435288264693e+00 
       9.041231308326e-06       6.761644641850e+00 
       1.138223584796e-05       8.411664897985e+00 
       1.432938595203e-05       1.046432841780e+01 
       1.803962811042e-05       1.301788431402e+01 
       2.271054624752e-05       1.619455044047e+01 
       2.859088378674e-05       2.014635588595e+01 
       3.599379014478e-05       2.506240282047e+01 
       4.531349708004e-05       3.117788790589e+01 
       5.704631297133e-05       3.878530052997e+01 
       7.181705304877e-05       4.824830508337e+01 
       9.041231308326e-05       6.001891556112e+01 
       1.138223584796e-04       7.465867384890e+01 
       1.432938595203e-04       9.286462971365e+01 
       1.803962811042e-04       1.155009467437e+02 
       2.271054624752e-04       1.436368404177e+02 
       2.859088378674e-04       1.785911336803e+02 
       3.599379014478e-04       2.219827251205e+02 
       4.531349708004e-04       2.757843163908e+02 
       5.704631297133e-04       3.423734464476e+02 
       7.181705304877e-04       4.245703033774e+02 
       9.041231308326e-04       5.256474044912e+02 
       1.138223584796e-03       6.492949205103e+02 
       1.432938595203e-03       7.995244151175e+02 
       1.803962811042e-03       9.804673180864e+02 
       2.271054624752e-03       1.195952257372e+03 
       2.859088378674e-03       1.448765781062e+03 
       3.599379014478e-03       1.739664945132e+03 
       4.531349708004e-03       2.066081152609e+03 
       5.704631297133e-03       2.420540915289e+03 
       7.181705304877e-03       2.785822331902e+03 
       9.041231308326e-03       3.144912380521e+03 
       1.138223584796e-02       3.464570242259e+03 
       1.432938595203e-02       3.705366508140e+03 
       1.803962811039e-02       3.822798715588e+03 
       2.271054606773e-02       3.776330132953e+03 
       2.859074668549e-02       3.547615199670e+03 
       3.597478746162e-02       3.166378434287e+03 
       4.468033113589e-02       2.741909048269e+03 
       5.202788493762e-02       2.451154932044e+03 
       5.735513223647e-02       2.275246756447e+03 
       6.174691679797e-02       2.145443361581e+03 
       6.566753997218e-02       2.037004980019e+03 
       6.932384826121e-02       1.939849173962e+03 
       7.282526668305e-02       1.849226669750e+03 
       7.623738311488e-02       1.762814716325e+03 
       7.960326788971e-02       1.679582195164e+03 
       8.295326876259e-02       1.599248643046e+03 
       8.631002327953e-02       1.521974774797e+03 
       8.969124334784e-02       1.448154815542e+03 
       9.311136488403e-02       1.378259587534e+03 
       9.658257673351e-02       1.312712319526e+03 
       1.001154899208e-01       1.251791602476e+03 
       1.037195882606e-01       1.195561356593e+03 
       1.074035405496e-01       1.143831023768e+03 
       1.111754220026e-01       1.096148938890e+03 
       1.150428743307e-01       1.051831855133e+03 
       1.190132232035e-01       1.010031182575e+03 
       1.230935653967e-01       9.698329157010e+02 
       1.272908339319e-01       9.303820529817e+02 
       1.316118469660e-01       8.910134077933e+02 
       1.360633445397e-01       8.513639042942e+02 
       1.406520162076e-01       8.114375519574e+02 
       1.453845218489e-01       7.715991258401e+02 
       1.502675074799e-01       7.324873732406e+02 
       1.553076175697e-01       6.948594063085e+02 
       1.605115051468e-01       6.594006169930e+02 
       1.658858408545e-01       6.265472426080e+02 
       1.714373220194e-01       5.963706753479e+02 
       1.771726827470e-01       5.685594345262e+02 
       1.830987060241e-01       5.425118021701e+02 
       1.892222387843e-01       5.175203092759e+02 
       1.955502108801e-01       4.929959412816e+02 
       2.020896588956e-01       4.686541380036e+02 
       2.088477557282e-01       4.445861000313e+02 
       2.158318468709e-01       4.211782831560e+02 
       2.230494943434e-01       3.989108640640e+02 
       2.305085292523e-01       3.781267999793e+02 
       2.382171140268e-01       3.588806168999e+02 
       2.461838154814e-01       3.409375959543e+02 
       2.544176900171e-01       3.239177138537e+02 
       2.629283825109e-01       3.075015709587e+02 
       2.717262407728e-01       2.915784484800e+02 
       2.808224479080e-01       2.762512295688e+02 
       2.902291755345e-01       2.617071341675e+02 
       2.999597616281e-01       2.480549064122e+02 
       3.100289178483e-01       2.352460291166e+02 
       3.204529726363e-01       2.231252716156e+02 
       3.312501582735e-01       2.115519274609e+02 
       3.424409526208e-01       2.004825937093e+02 
       3.540484896546e-01       1.899522695683e+02 
       3.660990575250e-01       1.799911298036e+02 
       3.786227091780e-01       1.705694343092e+02 
       3.916540193784e-01       1.616186325785e+02 
       4.052330343659e-01       1.530874238601e+02 
       4.194064781508e-01       1.449614038295e+02 
       4.342293053614e-01       1.372335153309e+02 
       4.497667290346e-01       1.298767325728e+02 
       4.660969100465e-01       1.228540875686e+02 
       4.833145852154e-01       1.161392855150e+02 
       5.015360545325e-01       1.097131505171e+02 
       5.209061819134e-01       1.035500328120e+02 
       5.416084571835e-01       9.762021925585e+01 
       5.638798510671e-01       9.189637108195e+01 
       5.880334310710e-01       8.634884033741e+01 
       6.144940388034e-01       8.094285788024e+01 
       6.438569534981e-01       7.563866187414e+01 
       6.769891614527e-01       7.038837227004e+01 
       7.152145002293e-01       6.512996415990e+01 
       7.606757340853e-01       5.977946764961e+01 
       8.170991533086e-01       5.421462455172e+01 
       8.915394311037e-01       4.825021385664e+01 
       9.985026672959e-01       4.162391397287e+01 
       1.167607450850e+00       3.414443953466e+01 
       1.436855478684e+00       2.644152360023e+01 
       1.805863271695e+00       2.000620297583e+01 
       2.273389410680e+00       1.502909295532e+01 
       2.862027484225e+00       1.114524021130e+01 
       3.603079129031e+00       8.106678228481e+00 
       4.536007876242e+00       5.755125416815e+00 
       5.710495583500e+00       3.974129181155e+00 
       7.189088004006e+00       2.664316972070e+00 
       9.050525575868e+00       1.734275915117e+00 
       1.139393663755e+01       1.098641094836e+00 
