# Matter power spectrum P(k) at redshift z=1.5
# for k=1.9844e-07 to 12.538 h/Mpc,
# number of wavenumbers equal to 140
#    1:k (h/Mpc)              2:P (Mpc/h)^3        
       1.984404819527e-07       3.987003362005e-01 
       2.498217654590e-07       4.962683764828e-01 
       3.145069689556e-07       6.177128008892e-01 
       3.959408154046e-07       7.688765240175e-01 
       4.984599540793e-07       9.570323102320e-01 
       6.275239029522e-07       1.191232679539e+00 
       7.900057879348e-07       1.482745440810e+00 
       9.945583618956e-07       1.845595805831e+00 
       1.252074795303e-06       2.297241166342e+00 
       1.576268777274e-06       2.859410998055e+00 
       1.984404819527e-06       3.559152300245e+00 
       2.498217654590e-06       4.430130861732e+00 
       3.145069689556e-06       5.514250961645e+00 
       3.959408154046e-06       6.863671412033e+00 
       4.984599540793e-06       8.543314916591e+00 
       6.275239029522e-06       1.063399143335e+01 
       7.900057879348e-06       1.323628571462e+01 
       9.945583618956e-06       1.647539588456e+01 
       1.252074795303e-05       2.050715549654e+01 
       1.576268777274e-05       2.552552809268e+01 
       1.984404819527e-05       3.177193347669e+01 
       2.498217654590e-05       3.954685167829e+01 
       3.145069689556e-05       4.922425753387e+01 
       3.959408154046e-05       6.126956981662e+01 
       4.984599540793e-05       7.626195764448e+01 
       6.275239029522e-05       9.492203649185e+01 
       7.900057879348e-05       1.181462058961e+02 
       9.945583618956e-05       1.470491234058e+02 
       1.252074795303e-04       1.830160508692e+02 
       1.576268777274e-04       2.277669953344e+02 
       1.984404819527e-04       2.834345856099e+02 
       2.498217654590e-04       3.526572675243e+02 
       3.145069689556e-04       4.386883139902e+02 
       3.959408154046e-04       5.455188346526e+02 
       4.984599540793e-04       6.780089742294e+02 
       6.275239029522e-04       8.420159551720e+02 
       7.900057879348e-04       1.044501975294e+03 
       9.945583618956e-04       1.293599696322e+03 
       1.252074795303e-03       1.598595485716e+03 
       1.576268777274e-03       1.969725865854e+03 
       1.984404819527e-03       2.417599200291e+03 
       2.498217654590e-03       2.952109444074e+03 
       3.145069689556e-03       3.580758034663e+03 
       3.959408154046e-03       4.306035432390e+03 
       4.984599540793e-03       5.121634701009e+03 
       6.275239029522e-03       6.007388360760e+03 
       7.900057879348e-03       6.922944316029e+03 
       9.945583618956e-03       7.800641945239e+03 
       1.252074795303e-02       8.539859329116e+03 
       1.576268777110e-02       9.009197978043e+03 
       1.984404451916e-02       9.070448183701e+03 
       2.498094257138e-02       8.643223656456e+03 
       3.136321032845e-02       7.815362642195e+03 
       3.806260968125e-02       6.988112773549e+03 
       4.298070110833e-02       6.502084191644e+03 
       4.676672647756e-02       6.193416107152e+03 
       5.002426091584e-02       5.958829275643e+03 
       5.299978325215e-02       5.757814777483e+03 
       5.581273187657e-02       5.570880819795e+03 
       5.853035477006e-02       5.387424759722e+03 
       6.119481367688e-02       5.201590965615e+03 
       6.383475983906e-02       5.010575329472e+03 
       6.647094224824e-02       4.813794573060e+03 
       6.911919521828e-02       4.612372619347e+03 
       7.179215076966e-02       4.408725335526e+03 
       7.450027865243e-02       4.206154944910e+03 
       7.725254826981e-02       4.008425225244e+03 
       8.005686643111e-02       3.819320380025e+03 
       8.292037617022e-02       3.642211337250e+03 
       8.584966613117e-02       3.479658103807e+03 
       8.885092046005e-02       3.333081220304e+03 
       9.193002795865e-02       3.202532737285e+03 
       9.509266262172e-02       3.086596915152e+03 
       9.834434361893e-02       2.982451840802e+03 
       1.016904802302e-01       2.886123309791e+03 
       1.051364056034e-01       2.792953393800e+03 
       1.086874021331e-01       2.698272294784e+03 
       1.123487205480e-01       2.598205989332e+03 
       1.161255943275e-01       2.490474596982e+03 
       1.200232507498e-01       2.374976527685e+03 
       1.240469196688e-01       2.253945810103e+03 
       1.282018409801e-01       2.131552600632e+03 
       1.324932716488e-01       2.012973410833e+03 
       1.369264931171e-01       1.903132243325e+03 
       1.415068198740e-01       1.805434843412e+03 
       1.462396099505e-01       1.720834830685e+03 
       1.511302780856e-01       1.647504670753e+03 
       1.561843123033e-01       1.581272836652e+03 
       1.614072946311e-01       1.516834947442e+03 
       1.668049266928e-01       1.449500359843e+03 
       1.723830609107e-01       1.376914970508e+03 
       1.781477380749e-01       1.299996561411e+03 
       1.841052320684e-01       1.222508953303e+03 
       1.902621026078e-01       1.149331289002e+03 
       1.966252569541e-01       1.084195521739e+03 
       2.032020217037e-01       1.027980396366e+03 
       2.100002259878e-01       9.783995283346e+02 
       2.170282977085e-01       9.313005652782e+02 
       2.242953748550e-01       8.830077367937e+02 
       2.318114344928e-01       8.324177690802e+02 
       2.395874427540e-01       7.814494087352e+02 
       2.476355301249e-01       7.334402202190e+02 
       2.559691976115e-01       6.906286380508e+02 
       2.646035610627e-01       6.526022196258e+02 
       2.735556432107e-01       6.168697974714e+02 
       2.828447260518e-01       5.810777150401e+02 
       2.924927803747e-01       5.449589544223e+02 
       3.025249950151e-01       5.101943899065e+02 
       3.129704364942e-01       4.783767608831e+02 
       3.238628811728e-01       4.492982845439e+02 
       3.352418786313e-01       4.214186853686e+02 
       3.471541293468e-01       3.938307552989e+02 
       3.596552962502e-01       3.671666138232e+02 
       3.728124256226e-01       3.423055155549e+02 
       3.867072403049e-01       3.189447554562e+02 
       4.014407088149e-01       2.962447340474e+02 
       4.171395264328e-01       2.742291527390e+02 
       4.339655410640e-01       2.533369942096e+02 
       4.521298584701e-01       2.332857232590e+02 
       4.719146541019e-01       2.137311332203e+02 
       4.937082116753e-01       1.948263125018e+02 
       5.180637742270e-01       1.763753142199e+02 
       5.458037148530e-01       1.581855671757e+02 
       5.782156889395e-01       1.401240924947e+02 
       6.174495533725e-01       1.219011038475e+02 
       6.673867612959e-01       1.031778228984e+02 
       7.356786330963e-01       8.351625947145e+01 
       8.383669149230e-01       6.263687860272e+01 
       1.004724958121e+00       4.173732069307e+01 
       1.254177849762e+00       2.511102395772e+01 
       1.578445287374e+00       1.466054223255e+01 
       1.987140486444e+00       8.465287744844e+00 
       2.501661648155e+00       4.842694620526e+00 
       3.149405420572e+00       2.747168810066e+00 
       3.964866516000e+00       1.546623022856e+00 
       4.991471211364e+00       8.647500349494e-01 
       6.283889950226e+00       4.804774242003e-01 
       7.910948743257e+00       2.654414231104e-01 
       9.959294404287e+00       1.458767616686e-01 
       1.253800880910e+01       7.978252428831e-02 
