# Matter power spectrum P(k) at redshift z=2
# for k=1.62296e-07 to 10.252 h/Mpc,
# number of wavenumbers equal to 140
#    1:k (h/Mpc)              2:P (Mpc/h)^3        
       1.622961352912e-07       4.642207955316e-01 
       2.043187289540e-07       5.806234754706e-01 
       2.572220399857e-07       7.262139555814e-01 
       3.238233626116e-07       9.083110331999e-01 
       4.076694601243e-07       1.136068683154e+00 
       5.132254429629e-07       1.420936224870e+00 
       6.461125521253e-07       1.777233876280e+00 
       8.134075107498e-07       2.222872625525e+00 
       1.024019385427e-06       2.780254608167e+00 
       1.289164026484e-06       3.477399249628e+00 
       1.622961352912e-06       4.349351779266e+00 
       2.043187289540e-06       5.439944915362e+00 
       2.572220399857e-06       6.804002266461e+00 
       3.238233626116e-06       8.510094181690e+00 
       4.076694601243e-06       1.064398453134e+01 
       5.132254429629e-06       1.331294157153e+01 
       6.461125521253e-06       1.665112936757e+01 
       8.134075107498e-06       2.082635037702e+01 
       1.024019385427e-05       2.604847719694e+01 
       1.289164026484e-05       3.257999565915e+01 
       1.622961352912e-05       4.074918568919e+01 
       2.043187289540e-05       5.096659569856e+01 
       2.572220399857e-05       6.374562490418e+01 
       3.238233626116e-05       7.972822118431e+01 
       4.076694601243e-05       9.971693256317e+01 
       5.132254429629e-05       1.247148175276e+02 
       6.461125521253e-05       1.559750110795e+02 
       8.134075107498e-05       1.950620262668e+02 
       1.024019385427e-04       2.439270654174e+02 
       1.289164026484e-04       3.049995554737e+02 
       1.622961352912e-04       3.812964826219e+02 
       2.043187289540e-04       4.765492941540e+02 
       2.572220399857e-04       5.953442015502e+02 
       3.238233626116e-04       7.432643805849e+02 
       4.076694601243e-04       9.270109071493e+02 
       5.132254429629e-04       1.154464861922e+03 
       6.461125521253e-04       1.434643181379e+03 
       8.134075107498e-04       1.777504479495e+03 
       1.024019385427e-03       2.193552073152e+03 
       1.289164026484e-03       2.693047473174e+03 
       1.622961352912e-03       3.284415421662e+03 
       2.043187289540e-03       3.971722818860e+03 
       2.572220399857e-03       4.751609947869e+03 
       3.238233626116e-03       5.609389078335e+03 
       4.076694601243e-03       6.514034839175e+03 
       5.132254429629e-03       7.413270979606e+03 
       6.461125521253e-03       8.228590377462e+03 
       8.134075107498e-03       8.851407697431e+03 
       1.024019385427e-02       9.143104689305e+03 
       1.289164026484e-02       8.947868047212e+03 
       1.622961348705e-02       8.137734404172e+03 
       2.043183030353e-02       6.713784863359e+03 
       2.571476733233e-02       4.943729799421e+03 
       3.207842231341e-02       3.412498527031e+03 
       3.778948370334e-02       2.663394591605e+03 
       4.188505545362e-02       2.394186945060e+03 
       4.520550411535e-02       2.277794398880e+03 
       4.814369977994e-02       2.215559405360e+03 
       5.086993207481e-02       2.169099912714e+03 
       5.347229878855e-02       2.119238498474e+03 
       5.600277027682e-02       2.055474319659e+03 
       5.849506995417e-02       1.972616308543e+03 
       6.097273694917e-02       1.869462672463e+03 
       6.345319438054e-02       1.748049969917e+03 
       6.594998506440e-02       1.612959067132e+03 
       6.847408468256e-02       1.470512024145e+03 
       7.103471517362e-02       1.327856683425e+03 
       7.363987079664e-02       1.192031419026e+03 
       7.629667067459e-02       1.069141287212e+03 
       7.901160209753e-02       9.637649342652e+02 
       8.179069254889e-02       8.786521341142e+02 
       8.463963374993e-02       8.146848090036e+02 
       8.756387250279e-02       7.709960193681e+02 
       9.056867799552e-02       7.451181422860e+02 
       9.365919206528e-02       7.330873287577e+02 
       9.684046690721e-02       7.295578584802e+02 
       1.001174934159e-01       7.281083057393e+02 
       1.034952224935e-01       7.219549265612e+02 
       1.069785810897e-01       7.051474078965e+02 
       1.105724843661e-01       6.740232787865e+02 
       1.142818451201e-01       6.283930375781e+02 
       1.181115814444e-01       5.718424825085e+02 
       1.220666234861e-01       5.108291094677e+02 
       1.261519201032e-01       4.528220384181e+02 
       1.303724461715e-01       4.042365324925e+02 
       1.347332112696e-01       3.689516078110e+02 
       1.392392704516e-01       3.477235721449e+02 
       1.438957378053e-01       3.382580204415e+02 
       1.487078034895e-01       3.356455124497e+02 
       1.536807549339e-01       3.333215958426e+02 
       1.588200028936e-01       3.249496918385e+02 
       1.641311130527e-01       3.069525145450e+02 
       1.696198439010e-01       2.802957705251e+02 
       1.752921916455e-01       2.500178465587e+02 
       1.811544429962e-01       2.225418665362e+02 
       1.872132367753e-01       2.025485308040e+02 
       1.934756354644e-01       1.911827541029e+02 
       1.999492080398e-01       1.859559141169e+02 
       2.066421257665e-01       1.819927188837e+02 
       2.135632730579e-01       1.745160397596e+02 
       2.207223760881e-01       1.617445071091e+02 
       2.281301526153e-01       1.459756826817e+02 
       2.357984874894e-01       1.315620727811e+02 
       2.437406396685e-01       1.215480202869e+02 
       2.519714883567e-01       1.157449494510e+02 
       2.605078282843e-01       1.112612981118e+02 
       2.693687274012e-01       1.049933899498e+02 
       2.785759647161e-01       9.634952519121e+01 
       2.881545721939e-01       8.749609582036e+01 
       2.981335133371e-01       8.074004871578e+01 
       3.085465435170e-01       7.611499010174e+01 
       3.194333152281e-01       7.170853700023e+01 
       3.308408182390e-01       6.618695207550e+01 
       3.428252851106e-01       6.037305000774e+01 
       3.554547550759e-01       5.566717929889e+01 
       3.688125881727e-01       5.185828021408e+01 
       3.830023821600e-01       4.778733802840e+01 
       3.981550135684e-01       4.350116438006e+01 
       4.144389893115e-01       3.980959284308e+01 
       4.320761307204e-01       3.642268708630e+01 
       4.513661777796e-01       3.289376067004e+01 
       4.727269818705e-01       2.964192140651e+01 
       4.967633578150e-01       2.650411520353e+01 
       5.243918244965e-01       2.339769098302e+01 
       5.570819832743e-01       2.037063056957e+01 
       5.973602808539e-01       1.733742730924e+01 
       6.499475330641e-01       1.424629868990e+01 
       7.244521989995e-01       1.104456591299e+01 
       8.407975070175e-01       7.761495752355e+00 
       1.028064488894e+00       4.791654838529e+00 
       1.290723600537e+00       2.755201538886e+00 
       1.624840357719e+00       1.562108130811e+00 
       2.045552408291e+00       8.794427602077e-01 
       2.575197907660e+00       4.919915386583e-01 
       3.241982086352e+00       2.736471470945e-01 
       4.081413633090e+00       1.513943022014e-01 
       5.138195338740e+00       8.334755556989e-02 
       6.468604682702e+00       4.567723305819e-02 
       8.143490813905e+00       2.492697471497e-02 
       1.025204752634e+01       1.354944013584e-02 
