# Matter power spectrum P(k) at redshift z=1.5
# for k=2.14473e-07 to 10.7602 h/Mpc,
# number of wavenumbers equal to 139
#    1:k (h/Mpc)              2:P (Mpc/h)^3        
       2.144729626772e-07       3.700549685806e-01 
       2.700054628571e-07       4.590248944155e-01 
       3.399167385141e-07       5.693852846265e-01 
       4.279298200096e-07       7.062789103389e-01 
       5.387317248746e-07       8.760849854385e-01 
       6.782230585843e-07       1.086716436673e+00 
       8.538322433166e-07       1.347988643828e+00 
       1.074911108520e-06       1.672076833264e+00 
       1.353232909936e-06       2.074083439034e+00 
       1.703619298395e-06       2.572741869609e+00 
       2.144729626772e-06       3.191289472730e+00 
       2.700054628571e-06       3.958550375903e+00 
       3.399167385141e-06       4.910278655784e+00 
       4.279298200096e-06       6.090824413025e+00 
       5.387317248746e-06       7.555200363152e+00 
       6.782230585843e-06       9.371645193690e+00 
       8.538322433166e-06       1.162480303459e+01 
       1.074911108520e-05       1.441966698942e+01 
       1.353232909936e-05       1.788647009595e+01 
       1.703619298395e-05       2.218675081115e+01 
       2.144729626772e-05       2.752087410509e+01 
       2.700054628571e-05       3.413735551202e+01 
       3.399167385141e-05       4.234441652445e+01 
       4.279298200096e-05       5.252429779547e+01 
       5.387317248746e-05       6.515097355295e+01 
       6.782230585843e-05       8.081204644678e+01 
       8.538322433166e-05       1.002357526923e+02 
       1.074911108520e-04       1.243241592330e+02 
       1.353232909936e-04       1.541937565246e+02 
       1.703619298395e-04       1.912246754880e+02 
       2.144729626772e-04       2.371195549573e+02 
       2.700054628571e-04       2.939724221679e+02 
       3.399167385141e-04       3.643464413360e+02 
       4.279298200096e-04       4.513565266671e+02 
       5.387317248746e-04       5.587482157842e+02 
       6.782230585843e-04       6.909583259297e+02 
       8.538322433166e-04       8.531380318373e+02 
       1.074911108520e-03       1.051116901274e+03 
       1.353232909936e-03       1.291274494213e+03 
       1.703619298395e-03       1.580225176695e+03 
       2.144729626772e-03       1.924142461123e+03 
       2.700054628571e-03       2.327658394066e+03 
       3.399167385141e-03       2.792337574777e+03 
       4.279298200096e-03       3.314599466468e+03 
       5.387317248746e-03       3.883088804236e+03 
       6.782230585843e-03       4.475687748378e+03 
       8.538322433166e-03       5.056559157191e+03 
       1.074911108520e-02       5.573710779052e+03 
       1.353232909936e-02       5.958568342951e+03 
       1.703619298386e-02       6.130840043719e+03 
       2.144729585892e-02       6.015483664223e+03 
       2.700029751075e-02       5.580403437171e+03 
       3.396297835424e-02       4.892869999194e+03 
       4.198475442647e-02       4.185642510844e+03 
       4.844737676714e-02       3.752463408145e+03 
       5.319730203449e-02       3.500875879487e+03 
       5.716277290631e-02       3.319438001608e+03 
       6.072653255062e-02       3.168889211593e+03 
       6.406302019824e-02       3.032574472281e+03 
       6.726614440125e-02       2.902339267055e+03 
       7.039290227284e-02       2.774106836162e+03 
       7.348107819800e-02       2.646146215613e+03 
       7.655749613622e-02       2.518240934397e+03 
       7.964228981272e-02       2.391192979301e+03 
       8.275129549938e-02       2.266457953614e+03 
       8.589747928121e-02       2.145833653901e+03 
       8.909183221355e-02       2.031177171275e+03 
       9.234395521950e-02       1.924149996876e+03 
       9.566245438749e-02       1.825999425706e+03 
       9.905521569154e-02       1.737388731657e+03 
       1.025296003427e-01       1.658286650523e+03 
       1.060925862965e-01       1.587927692779e+03 
       1.097508722475e-01       1.524852634934e+03 
       1.135109548693e-01       1.467039820177e+03 
       1.173791865873e-01       1.412133630560e+03 
       1.213618189513e-01       1.357762541826e+03 
       1.254650352403e-01       1.301915680173e+03 
       1.296949749771e-01       1.243313840767e+03 
       1.340577524037e-01       1.181684489608e+03 
       1.385594705460e-01       1.117847577733e+03 
       1.432062322184e-01       1.053552400439e+03 
       1.480041491352e-01       9.910747983043e+02 
       1.529593501768e-01       9.326608081448e+02 
       1.580779897843e-01       8.799585765245e+02 
       1.633662574072e-01       8.335893236214e+02 
       1.688303889010e-01       7.929767582044e+02 
       1.744766807524e-01       7.564994593224e+02 
       1.803115079962e-01       7.219625201018e+02 
       1.863413466810e-01       6.872912783665e+02 
       1.925728017369e-01       6.512362563560e+02 
       1.990126411014e-01       6.138031844664e+02 
       2.056678369770e-01       5.761801340226e+02 
       2.125456151256e-01       5.401517367465e+02 
       2.196535131725e-01       5.072590966741e+02 
       2.269994489892e-01       4.781061135476e+02 
       2.345918003849e-01       4.521419854119e+02 
       2.424394975586e-01       4.280224219110e+02 
       2.505521300857e-01       4.043703176016e+02 
       2.589400706416e-01       3.805213080715e+02 
       2.676146182558e-01       3.567978527317e+02 
       2.765881646638e-01       3.341320977706e+02 
       2.858743883581e-01       3.133193022288e+02 
       2.954884822993e-01       2.944557626764e+02 
       3.054474230562e-01       2.769580032421e+02 
       3.157702915508e-01       2.601009950095e+02 
       3.264786588173e-01       2.435969039518e+02 
       3.375970545804e-01       2.277086425458e+02 
       3.491535424929e-01       2.128408012171e+02 
       3.611804342837e-01       1.990706229299e+02 
       3.737151869512e-01       1.861072703663e+02 
       3.868015442051e-01       1.736585978405e+02 
       4.004910082965e-01       1.617191749787e+02 
       4.148447654942e-01       1.504406064264e+02 
       4.299362448648e-01       1.398319869143e+02 
       4.458545776340e-01       1.297410894735e+02 
       4.627093639586e-01       1.200808683247e+02 
       4.806373823577e-01       1.108824822013e+02 
       4.998122625876e-01       1.021299635393e+02 
       5.204588162199e-01       9.373956335554e+01 
       5.428749422235e-01       8.567600032209e+01 
       5.674663458709e-01       7.791266530860e+01 
       5.948039400344e-01       7.038549270221e+01 
       6.257235773214e-01       6.304289179324e+01 
       6.615097765159e-01       5.581496833972e+01 
       7.042582193614e-01       4.861328665225e+01 
       7.576487002378e-01       4.132065636518e+01 
       8.287234736337e-01       3.378434001697e+01 
       9.320686242514e-01       2.586653904613e+01 
       1.096904943166e+00       1.777093533561e+01 
       1.356134075371e+00       1.080222687496e+01 
       1.705403838228e+00       6.245847495150e+00 
       2.146946679942e+00       3.567923224244e+00 
       2.702845644316e+00       2.020653356950e+00 
       3.402681065751e+00       1.135515185648e+00 
       4.283721661905e+00       6.336302545877e-01 
       5.392886057225e+00       3.513164602994e-01 
       6.789241300351e+00       1.936537537576e-01 
       8.547148399815e+00       1.061778927169e-01 
       1.076022231890e+01       5.793129283522e-02 
