# Matter power spectrum P(k) at redshift z=0
# for k=2.3029e-07 to 11.5582 h/Mpc,
# number of wavenumbers equal to 139
#    1:k (h/Mpc)              2:P (Mpc/h)^3        
       2.302902042064e-07       9.444509575397e-01 
       2.899181901627e-07       1.176059815966e+00 
       3.649853769372e-07       1.464466396438e+00 
       4.594893659595e-07       1.823599273151e+00 
       5.784628392556e-07       2.270802741156e+00 
       7.282415681174e-07       2.827674457286e+00 
       9.168018160278e-07       3.521108496535e+00 
       1.154185103777e-06       4.384594197734e+00 
       1.453032957059e-06       5.459833525038e+00 
       1.829260113815e-06       6.798755054829e+00 
       2.302902042064e-06       8.466021848233e+00 
       2.899181901627e-06       1.054215432253e+01 
       3.649853769372e-06       1.312741892592e+01 
       4.594893659595e-06       1.634667039341e+01 
       5.784628392556e-06       2.035538139130e+01 
       7.282415681174e-06       2.534715065075e+01 
       9.168018160279e-06       3.156305200214e+01 
       1.154185103777e-05       3.930327543296e+01 
       1.453032957059e-05       4.894162161155e+01 
       1.829260113815e-05       6.094354839678e+01 
       2.302902042064e-05       7.588863790861e+01 
       2.899181901627e-05       9.449856338901e+01 
       3.649853769372e-05       1.176718949728e+02 
       4.594893659595e-05       1.465274026529e+02 
       5.784628392556e-05       1.824579031167e+02 
       7.282415681174e-05       2.271971632705e+02 
       9.168018160279e-05       2.829029198348e+02 
       1.154185103777e-04       3.522596891372e+02 
       1.453032957059e-04       4.386056827132e+02 
       1.829260113815e-04       5.460887120647e+02 
       2.302902042064e-04       6.798562615085e+02 
       2.899181901627e-04       8.462845875558e+02 
       3.649853769372e-04       1.053250274693e+03 
       4.594893659595e-04       1.310444646134e+03 
       5.784628392556e-04       1.629726642992e+03 
       7.282415681174e-04       2.025503180977e+03 
       9.168018160279e-04       2.515113349115e+03 
       1.154185103777e-03       3.119155773715e+03 
       1.453032957059e-03       3.861619855118e+03 
       1.829260113815e-03       4.769623839655e+03 
       2.302902042064e-03       5.872530205680e+03 
       2.899181901627e-03       7.199983994644e+03 
       3.649853769372e-03       8.778469592204e+03 
       4.594893659595e-03       1.062568965675e+04 
       5.784628392556e-03       1.274192394507e+04 
       7.282415681174e-03       1.509772166537e+04 
       9.168018160279e-03       1.761761533546e+04 
       1.154185103777e-02       2.016025216444e+04 
       1.453032957059e-02       2.249948482723e+04 
       1.829260113463e-02       2.431991545856e+04 
       2.302901359899e-02       2.525819385604e+04 
       2.898979817168e-02       2.503675520296e+04 
       3.636933050433e-02       2.371860927683e+04 
       4.391608678911e-02       2.211383520793e+04 
       4.939341377315e-02       2.104658153613e+04 
       5.365345024961e-02       2.029308117903e+04 
       5.733999382219e-02       1.967735557763e+04 
       6.071806535840e-02       1.912473082684e+04 
       6.391773832392e-02       1.859772415922e+04 
       6.701292072538e-02       1.807552008576e+04 
       7.005026039757e-02       1.754657611419e+04 
       7.306162112173e-02       1.700548108233e+04 
       7.607017502572e-02       1.645136661069e+04 
       7.909366766371e-02       1.588689575173e+04 
       8.214629830078e-02       1.531742741482e+04 
       8.523986623150e-02       1.475018462205e+04 
       8.838450260484e-02       1.419336591029e+04 
       9.158915563460e-02       1.365520282906e+04 
       9.486192250888e-02       1.314300589678e+04 
       9.821028236474e-02       1.266226675101e+04 
       1.016412633001e-01       1.221589995687e+04 
       1.051615641279e-01       1.180371381898e+04 
       1.087776442832e-01       1.142220483020e+04 
       1.124957908205e-01       1.106476475077e+04 
       1.163221686195e-01       1.072236787884e+04 
       1.202628581063e-01       1.038475635062e+04 
       1.243238836122e-01       1.004204763780e+04 
       1.285112347051e-01       9.686553690862e+03 
       1.328308823102e-01       9.314459839585e+03 
       1.372887910863e-01       8.926919127916e+03 
       1.418909292955e-01       8.530149259942e+03 
       1.466432772527e-01       8.134311278173e+03 
       1.515518353454e-01       7.751276109417e+03 
       1.566226325540e-01       7.391742414080e+03 
       1.618617363626e-01       7.062428048047e+03 
       1.672752649298e-01       6.764130023287e+03 
       1.728694023693e-01       6.491320795000e+03 
       1.786504179846e-01       6.233635827444e+03 
       1.846246902910e-01       5.979100986527e+03 
       1.907987366596e-01       5.718267834004e+03 
       1.971792494266e-01       5.447776600209e+03 
       2.037731393304e-01       5.171702542099e+03 
       2.105875871849e-01       4.899758383952e+03 
       2.176301047733e-01       4.642888346863e+03 
       2.249086060647e-01       4.408209452979e+03 
       2.324314900351e-01       4.195756878258e+03 
       2.402077366287e-01       3.998761533574e+03 
       2.482470177495e-01       3.807525891911e+03 
       2.565598256540e-01       3.614968778716e+03 
       2.651576217583e-01       3.420564941193e+03 
       2.740530097265e-01       3.229989289274e+03 
       2.832599378407e-01       3.050572098042e+03 
       2.927939371394e-01       2.885827895302e+03 
       3.026724038039e-01       2.733161223628e+03 
       3.129149369172e-01       2.586485167229e+03 
       3.235437463057e-01       2.441521377423e+03 
       3.345841500540e-01       2.299063477759e+03 
       3.460651880335e-01       2.163181935593e+03 
       3.580203872366e-01       2.036386473223e+03 
       3.704887281582e-01       1.917018665973e+03 
       3.835158809063e-01       1.801613534713e+03 
       3.971558083466e-01       1.689056813590e+03 
       4.114728765382e-01       1.581124888413e+03 
       4.265446785577e-01       1.479028362106e+03 
       4.424658811200e-01       1.381408630066e+03 
       4.593535697288e-01       1.286698401674e+03 
       4.773548436679e-01       1.195286637206e+03 
       4.966578836322e-01       1.107638132454e+03 
       5.175085511323e-01       1.022750097360e+03 
       5.402361241875e-01       9.400461866849e+02 
       5.652947649374e-01       8.595570520257e+02 
       5.933334177725e-01       7.804821962857e+02 
       6.253200557360e-01       7.022244036439e+02 
       6.627767944193e-01       6.239371780387e+02 
       7.082583495529e-01       5.444312224463e+02 
       7.664061296901e-01       4.620718344598e+02 
       8.464271661379e-01       3.747988301671e+02 
       9.676347663471e-01       2.813167546465e+02 
       1.164212715842e+00       1.876257544486e+02 
       1.455408251334e+00       1.136906564406e+02 
       1.831848169122e+00       6.700887476642e+01 
       2.306156876154e+00       3.903013446239e+01 
       2.903279490352e+00       2.250348058973e+01 
       3.655012327944e+00       1.285661677344e+01 
       4.601387900070e+00       7.284850102092e+00 
       5.792804156920e+00       4.097067471455e+00 
       7.292708358693e+00       2.288675036347e+00 
       9.180975873563e+00       1.270624600506e+00 
       1.155816383230e+01       7.014619356033e-01 
