# Matter power spectrum P(k) at redshift z=0
# for k=2.12261e-07 to 10.6505 h/Mpc,
# number of wavenumbers equal to 139
#    1:k (h/Mpc)              2:P (Mpc/h)^3        
       2.122610239488e-07       8.524090061294e-01 
       2.672207969826e-07       1.065707517625e+00 
       3.364110518813e-07       1.332379766712e+00 
       4.235164220218e-07       1.665781476153e+00 
       5.331755859954e-07       2.082610373820e+00 
       6.712282941578e-07       2.603742462929e+00 
       8.450263566305e-07       3.255277551865e+00 
       1.063825153998e-06       4.069846405939e+00 
       1.339276520074e-06       5.088244985849e+00 
       1.686049244540e-06       6.361477618466e+00 
       2.122610239488e-06       7.953311421034e+00 
       2.672207969826e-06       9.943469903822e+00 
       3.364110518813e-06       1.243162567537e+01 
       4.235164220218e-06       1.554239217783e+01 
       5.331755859954e-06       1.943156437450e+01 
       6.712282941578e-06       2.429392078938e+01 
       8.450263566305e-06       3.037297734266e+01 
       1.063825153998e-05       3.797318087662e+01 
       1.339276520074e-05       4.747515186737e+01 
       1.686049244540e-05       5.935473735443e+01 
       2.122610239488e-05       7.420682361738e+01 
       2.672207969826e-05       9.277509193492e+01 
       3.364110518813e-05       1.159891892895e+02 
       4.235164220218e-05       1.450111393093e+02 
       5.331755859954e-05       1.812932460268e+02 
       6.712282941578e-05       2.266502489118e+02 
       8.450263566305e-05       2.833490645038e+02 
       1.063825153998e-04       3.542200643049e+02 
       1.339276520074e-04       4.427944029673e+02 
       1.686049244540e-04       5.534722391508e+02 
       2.122610239488e-04       6.917264311071e+02 
       2.672207969826e-04       8.643448530448e+02 
       3.364110518813e-04       1.079711066263e+03 
       4.235164220218e-04       1.348116998616e+03 
       5.331755859954e-04       1.682092706744e+03 
       6.712282941578e-04       2.096728080432e+03 
       8.450263566305e-04       2.609943934388e+03 
       1.063825153998e-03       3.242615761694e+03 
       1.339276520074e-03       4.018335710755e+03 
       1.686049244540e-03       4.962535433698e+03 
       2.122610239488e-03       6.100712444821e+03 
       2.672207969826e-03       7.455273353183e+03 
       3.364110518813e-03       9.040606611895e+03 
       4.235164220218e-03       1.085608112272e+04 
       5.331755859954e-03       1.281812498802e+04 
       6.712282941578e-03       1.495469753704e+04 
       8.450263566305e-03       1.711335142513e+04 
       1.063825153998e-02       1.911877566892e+04 
       1.339276520074e-02       2.072749557484e+04 
       1.686049244512e-02       2.164100708072e+04 
       2.122610140372e-02       2.156489225329e+04 
       2.672160162333e-02       2.034815709609e+04 
       3.359547988894e-02       1.820174007048e+04 
       4.127792304766e-02       1.597704815504e+04 
       4.720774970212e-02       1.463795193360e+04 
       5.164080378615e-02       1.383139374400e+04 
       5.538760687123e-02       1.323687330252e+04 
       5.877709139155e-02       1.273694570283e+04 
       6.196279932823e-02       1.227911362595e+04 
       6.502887024059e-02       1.183653496927e+04 
       6.802702930760e-02       1.139526649430e+04 
       7.099190083029e-02       1.094917959028e+04 
       7.394825697991e-02       1.049749394400e+04 
       7.691481174775e-02       1.004327002117e+04 
       7.990636579450e-02       9.592237144022e+03 
       8.293509488707e-02       9.151716893506e+03 
       8.601136262342e-02       8.729572064612e+03 
       8.914425397298e-02       8.333193767207e+03 
       9.234193727046e-02       7.968577014689e+03 
       9.561191659988e-02       7.639546387777e+03 
       9.896121173271e-02       7.347188664728e+03 
       1.023964887413e-01       7.089542660748e+03 
       1.059241561382e-01       6.861598113409e+03 
       1.095504363604e-01       6.655660303561e+03 
       1.132814192712e-01       6.462137123273e+03 
       1.171231023387e-01       6.270772071371e+03 
       1.210814208396e-01       6.072250578709e+03 
       1.251622705719e-01       5.859954260178e+03 
       1.293715249833e-01       5.631465897866e+03 
       1.337150482408e-01       5.389338567517e+03 
       1.381987055128e-01       5.140735400323e+03 
       1.428283715650e-01       4.895848804592e+03 
       1.476099386694e-01       4.665419463971e+03 
       1.525493247514e-01       4.458000560685e+03 
       1.576524826620e-01       4.277705057960e+03 
       1.629254114323e-01       4.123038778975e+03 
       1.683741703522e-01       3.987189230162e+03 
       1.740048967040e-01       3.859886468288e+03 
       1.798238279709e-01       3.730585053933e+03 
       1.858373293435e-01       3.592126220310e+03 
       1.920519273455e-01       3.443436988195e+03 
       1.984743504225e-01       3.289813966323e+03 
       2.051115773705e-01       3.140349559438e+03 
       2.119708945463e-01       3.003623255946e+03 
       2.190599629065e-01       2.883775604646e+03 
       2.263868960788e-01       2.778848839415e+03 
       2.339603508952e-01       2.682166751802e+03 
       2.417896321379e-01       2.586141010702e+03 
       2.498848136793e-01       2.486539902991e+03 
       2.582568787826e-01       2.384593597747e+03 
       2.669178831063e-01       2.285424331037e+03 
       2.758811449796e-01       2.193953178054e+03 
       2.851614688763e-01       2.111390122624e+03 
       2.947754098114e-01       2.034850655440e+03 
       3.047415887886e-01       1.960158692142e+03 
       3.150810726574e-01       1.885365988367e+03 
       3.258178361329e-01       1.811862641690e+03 
       3.369793297810e-01       1.742227342736e+03 
       3.485971862122e-01       1.677292724722e+03 
       3.607081086802e-01       1.615556092087e+03 
       3.733550034860e-01       1.555239032120e+03 
       3.865884427767e-01       1.496229471909e+03 
       4.004685819254e-01       1.439532053322e+03 
       4.150677129530e-01       1.385391464195e+03 
       4.304737247137e-01       1.332968598913e+03 
       4.467948831963e-01       1.281706015617e+03 
       4.641665796454e-01       1.231806132784e+03 
       4.827610913994e-01       1.183233854580e+03 
       5.028020974792e-01       1.135476057449e+03 
       5.245869637501e-01       1.088259122379e+03 
       5.485222426283e-01       1.041355309945e+03 
       5.751827143628e-01       9.942405614070e+02 
       6.054146879883e-01       9.463609278371e+02 
       6.405278757312e-01       8.968946235815e+02 
       6.826775950410e-01       8.446132474852e+02 
       7.356881738769e-01       7.875550784979e+02 
       8.069625295621e-01       7.224110324444e+02 
       9.119300291561e-01       6.436494825367e+02 
       1.080653381213e+00       5.447488230525e+02 
       1.341734862629e+00       4.314361541835e+02 
       1.687996721236e+00       3.247700914112e+02 
       2.125047094531e+00       2.338244043437e+02 
       2.675275753264e+00       1.614975771582e+02 
       3.367972629330e+00       1.077165381947e+02 
       4.240026329291e+00       6.988796547886e+01 
       5.337876892621e+00       4.439787898354e+01 
       6.719988865149e+00       2.776453587907e+01 
       8.459964749310e+00       1.716313051124e+01 
       1.065046460579e+01       1.052055510260e+01 
