# Matter power spectrum P(k) at redshift z=2
# for k=1.649e-07 to 10.4155 h/Mpc,
# number of wavenumbers equal to 140
#    1:k (h/Mpc)              2:P (Mpc/h)^3        
       1.649003697786e-07       3.708950293133e-01 
       2.075972659285e-07       4.649872157108e-01 
       2.613494734964e-07       5.829496046687e-01 
       3.290194935436e-07       7.308378163779e-01 
       4.142110013977e-07       9.162437184128e-01 
       5.214607555043e-07       1.148685154821e+00 
       6.564801963578e-07       1.440094546041e+00 
       8.264596015344e-07       1.805431440456e+00 
       1.040450994193e-06       2.263450462598e+00 
       1.309850196316e-06       2.837664080214e+00 
       1.649003697786e-06       3.557549610053e+00 
       2.075972659285e-06       4.460062419739e+00 
       2.613494734964e-06       5.591532997013e+00 
       3.290194935436e-06       7.010045248903e+00 
       4.142110013977e-06       8.788418082746e+00 
       5.214607555043e-06       1.101794324926e+01 
       6.564801963578e-06       1.381307116009e+01 
       8.264596015344e-06       1.731728491308e+01 
       1.040450994193e-05       2.171046343262e+01 
       1.309850196316e-05       2.721811041933e+01 
       1.649003697786e-05       3.412292037664e+01 
       2.075972659285e-05       4.277927042179e+01 
       2.613494734964e-05       5.363137186325e+01 
       3.290194935436e-05       6.723599353285e+01 
       4.142110013977e-05       8.429088422253e+01 
       5.214607555043e-05       1.056702753534e+02 
       6.564801963578e-05       1.324691327524e+02 
       8.264596015344e-05       1.660581253727e+02 
       1.040450994193e-04       2.081515361168e+02 
       1.309850196316e-04       2.608904355142e+02 
       1.649003697786e-04       3.269431352404e+02 
       2.075972659285e-04       4.096237942213e+02 
       2.613494734964e-04       5.130273299080e+02 
       3.290194935436e-04       6.421734680890e+02 
       4.142110013977e-04       8.031439745817e+02 
       5.214607555043e-04       1.003185593512e+03 
       6.564801963578e-04       1.250741669705e+03 
       8.264596015344e-04       1.555373834004e+03 
       1.040450994193e-03       1.927522526377e+03 
       1.309850196316e-03       2.377948367299e+03 
       1.649003697786e-03       2.916494463060e+03 
       2.075972659285e-03       3.550048169306e+03 
       2.613494734964e-03       4.279789071111e+03 
       3.290194935436e-03       5.097503568162e+03 
       4.142110013977e-03       5.979096697170e+03 
       5.214607555043e-03       6.883837343580e+03 
       6.564801963578e-03       7.741038862751e+03 
       8.264596015344e-03       8.447826388620e+03 
       1.040450994193e-02       8.864945871023e+03 
       1.309850196315e-02       8.826087374536e+03 
       1.649003688317e-02       8.180692992822e+03 
       2.075964822625e-02       6.897684156934e+03 
       2.612333655816e-02       5.216521140115e+03 
       3.249128259700e-02       3.731303913528e+03 
       3.796124447060e-02       3.003404525965e+03 
       4.191144401682e-02       2.722115648777e+03 
       4.515263545718e-02       2.590820587027e+03 
       4.803888923686e-02       2.516681167898e+03 
       5.072667313771e-02       2.461636930418e+03 
       5.329823253549e-02       2.405880667252e+03 
       5.580263905565e-02       2.338033079060e+03 
       5.827200652786e-02       2.251926228790e+03 
       6.072890115499e-02       2.145372958801e+03 
       6.319011817881e-02       2.019518768460e+03 
       6.566877341259e-02       1.878260765698e+03 
       6.817553924793e-02       1.727541615395e+03 
       7.071941403405e-02       1.574489681844e+03 
       7.330822169044e-02       1.426479754965e+03 
       7.594894764302e-02       1.290243668541e+03 
       7.864797130612e-02       1.171162684365e+03 
       8.141123082903e-02       1.072828949335e+03 
       8.424434210625e-02       9.968809224613e+02 
       8.715268605502e-02       9.430331222925e+02 
       9.014147334309e-02       9.091806234768e+02 
       9.321579275777e-02       8.914909432161e+02 
       9.638064750462e-02       8.845068298250e+02 
       9.964098249123e-02       8.814187442292e+02 
       1.030017048403e-01       8.747369780810e+02 
       1.064676993378e-01       8.575006503190e+02 
       1.100438401633e-01       8.248794502909e+02 
       1.137350000117e-01       7.756608974367e+02 
       1.175460575576e-01       7.129160269836e+02 
       1.214819041120e-01       6.433369638799e+02 
       1.255474502575e-01       5.753440795099e+02 
       1.297476332043e-01       5.167117518304e+02 
       1.340874255880e-01       4.726573480864e+02 
       1.385718464093e-01       4.449025926137e+02 
       1.432059748104e-01       4.315586768889e+02 
       1.479949673709e-01       4.274819738049e+02 
       1.529440796052e-01       4.251896489146e+02 
       1.580586923451e-01       4.168427777937e+02 
       1.633443436998e-01       3.972550811798e+02 
       1.688067673140e-01       3.664830032748e+02 
       1.744519376863e-01       3.299361603732e+02 
       1.802861233891e-01       2.954942746613e+02 
       1.863159491467e-01       2.695443430831e+02 
       1.925484678973e-01       2.543612033629e+02 
       1.989912442066e-01       2.475868020064e+02 
       2.056524507304e-01       2.434081920483e+02 
       2.125409798667e-01       2.353905937952e+02 
       2.196665733346e-01       2.203562145725e+02 
       2.270399732008e-01       2.005485092084e+02 
       2.346730989144e-01       1.816318191517e+02 
       2.425792562878e-01       1.681981960157e+02 
       2.507733861928e-01       1.606977709003e+02 
       2.592723632017e-01       1.555778090332e+02 
       2.680953577356e-01       1.482941226640e+02 
       2.772642798544e-01       1.373617414227e+02 
       2.868043291758e-01       1.255186675046e+02 
       2.967446843678e-01       1.163618988530e+02 
       3.071193784856e-01       1.104544684271e+02 
       3.179684251132e-01       1.051395574847e+02 
       3.293392879955e-01       9.806298837246e+01 
       3.412888288313e-01       9.015955563534e+01 
       3.538859328752e-01       8.377200271981e+01 
       3.672151150429e-01       7.888835179286e+01 
       3.813815770973e-01       7.358428459783e+01 
       3.965184683542e-01       6.769267066976e+01 
       4.127975918087e-01       6.266279243937e+01 
       4.304456805114e-01       5.815703381063e+01 
       4.497700318734e-01       5.326830291909e+01 
       4.712005765539e-01       4.876242684636e+01 
       4.953623364672e-01       4.440404950951e+01 
       5.232075411428e-01       3.999845259920e+01 
       5.562731956537e-01       3.567392987765e+01 
       5.972231193214e-01       3.126469019649e+01 
       6.510811703970e-01       2.667269390274e+01 
       7.281482291125e-01       2.178729468621e+01 
       8.495687377350e-01       1.660598307124e+01 
       1.043603091352e+00       1.172799895457e+01 
       1.311270632592e+00       8.136111984066e+00 
       1.650740053968e+00       5.744071867061e+00 
       2.078158393064e+00       4.124729609542e+00 
       2.616246410640e+00       2.995678105422e+00 
       3.293659089871e+00       2.185271682941e+00 
       4.146471126025e+00       1.589285027529e+00 
       5.220097869823e+00       1.144035698331e+00 
       6.571713860373e+00       8.098702697685e-01 
       8.273297577864e+00       5.609442325028e-01 
       1.041546456011e+01       3.789234272939e-01 
