# Matter power spectrum P(k) at redshift z=1
# for k=2.36491e-07 to 11.8648 h/Mpc,
# number of wavenumbers equal to 139
#    1:k (h/Mpc)              2:P (Mpc/h)^3        
       2.364912130759e-07       3.859074844936e-01 
       2.977247978073e-07       4.782920930317e-01 
       3.748133136809e-07       5.927931832706e-01 
       4.718620052717e-07       7.347053465801e-01 
       5.940390692967e-07       9.105906766710e-01 
       7.478508799362e-07       1.128582204101e+00 
       9.414884769843e-07       1.398759971367e+00 
       1.185263768587e-06       1.733617138574e+00 
       1.492158677953e-06       2.148637671391e+00 
       1.878516478104e-06       2.663012324875e+00 
       2.364912130759e-06       3.300526025148e+00 
       2.977247978073e-06       4.090657682164e+00 
       3.748133136809e-06       5.069943280018e+00 
       4.718620052717e-06       6.283665260837e+00 
       5.940390692967e-06       7.787946291539e+00 
       7.478508799362e-06       9.652344175491e+00 
       9.414884769843e-06       1.196306779175e+01 
       1.185263768587e-05       1.482696254998e+01 
       1.492158677953e-05       1.837644923639e+01 
       1.878516478104e-05       2.277564379363e+01 
       2.364912130759e-05       2.822793940436e+01 
       2.977247978073e-05       3.498539828323e+01 
       3.748133136809e-05       4.336038122725e+01 
       4.718620052717e-05       5.373994041785e+01 
       5.940390692967e-05       6.660361697369e+01 
       7.478508799362e-05       8.254541925097e+01 
       9.414884769843e-05       1.023009061613e+02 
       1.185263768587e-04       1.267804489091e+02 
       1.492158677953e-04       1.571098618409e+02 
       1.878516478104e-04       1.946796130575e+02 
       2.364912130759e-04       2.412036197215e+02 
       2.977247978073e-04       2.987879770790e+02 
       3.748133136809e-04       3.700085132320e+02 
       4.718620052717e-04       4.579933755038e+02 
       5.940390692967e-04       5.665027198134e+02 
       7.478508799362e-04       6.999926530587e+02 
       9.414884769843e-04       8.636467070878e+02 
       1.185263768587e-03       1.063354106093e+03 
       1.492158677953e-03       1.305591996560e+03 
       1.878516478104e-03       1.597102503056e+03 
       2.364912130759e-03       1.944223478458e+03 
       2.977247978073e-03       2.351836024492e+03 
       3.748133136809e-03       2.821827241546e+03 
       4.718620052717e-03       3.351018878721e+03 
       5.940390692967e-03       3.928503938927e+03 
       7.478508799362e-03       4.523634173610e+03 
       9.414884769843e-03       5.114787841477e+03 
       1.185263768587e-02       5.643090330959e+03 
       1.492158677953e-02       6.038157878317e+03 
       1.878516478101e-02       6.216167202798e+03 
       2.364912112120e-02       6.096442051346e+03 
       2.977233749004e-02       5.640286087537e+03 
       3.746159097969e-02       4.911652602708e+03 
       4.652790108820e-02       4.144571852754e+03 
       5.418181715869e-02       3.667093874373e+03 
       5.973085726043e-02       3.406774399818e+03 
       6.430518756057e-02       3.228462723782e+03 
       6.838863080441e-02       3.085070671185e+03 
       7.219670569334e-02       2.957143234972e+03 
       7.584341476688e-02       2.835205361220e+03 
       7.939708523235e-02       2.714447637004e+03 
       8.290258412978e-02       2.592720717996e+03 
       8.639152398471e-02       2.469606263786e+03 
       8.988748504101e-02       2.345879102945e+03 
       9.340891629190e-02       2.223116004945e+03 
       9.697085406231e-02       2.103358395691e+03 
       1.005859938942e-01       1.988799950032e+03 
       1.042653877275e-01       1.881497629351e+03 
       1.080189133076e-01       1.783118212628e+03 
       1.118555993958e-01       1.694733706878e+03 
       1.157838564347e-01       1.616678414105e+03 
       1.198116432983e-01       1.548477094771e+03 
       1.239465896480e-01       1.488852869104e+03 
       1.281960867108e-01       1.435824883692e+03 
       1.325673551327e-01       1.386907395548e+03 
       1.370674959041e-01       1.339414152612e+03 
       1.417035286398e-01       1.290852316010e+03 
       1.464824203590e-01       1.239354468097e+03 
       1.514111071639e-01       1.184058173142e+03 
       1.564965107098e-01       1.125320108014e+03 
       1.617455510335e-01       1.064668808125e+03 
       1.671651570809e-01       1.004465264224e+03 
       1.727622761369e-01       9.473333365971e+02 
       1.785438832706e-01       8.955039843890e+02 
       1.845169918488e-01       8.502481370896e+02 
       1.906886661380e-01       8.115472524931e+02 
       1.970660369931e-01       7.780930981453e+02 
       2.036563216135e-01       7.476459749352e+02 
       2.104668483397e-01       7.177052507404e+02 
       2.175050874582e-01       6.863317317545e+02 
       2.247786889845e-01       6.528320221654e+02 
       2.322955284100e-01       6.179790287401e+02 
       2.400637614369e-01       5.836058607292e+02 
       2.480918887888e-01       5.517285843263e+02 
       2.563888322958e-01       5.236171483467e+02 
       2.649640236214e-01       4.992589335258e+02 
       2.738275072443e-01       4.774594228461e+02 
       2.829900596515e-01       4.565318601734e+02 
       2.924633271777e-01       4.352336283940e+02 
       3.022599855640e-01       4.134123728864e+02 
       3.123939251605e-01       3.919334728268e+02 
       3.228804668316e-01       3.719396372804e+02 
       3.337366151101e-01       3.539973132490e+02 
       3.449813571311e-01       3.377557800156e+02 
       3.566360185048e-01       3.223329310763e+02 
       3.687246908314e-01       3.070757007007e+02 
       3.812747503517e-01       2.920302431538e+02 
       3.943174938141e-01       2.777153688326e+02 
       4.078889267882e-01       2.644835105773e+02 
       4.220307525667e-01       2.521635911470e+02 
       4.367916283029e-01       2.403272763445e+02 
       4.522287820059e-01       2.287936814159e+02 
       4.684101240792e-01       2.177310946915e+02 
       4.854170477969e-01       2.072883336369e+02 
       5.033482071706e-01       1.973437226027e+02 
       5.223247099827e-01       1.877149653443e+02 
       5.424974073336e-01       1.784038107823e+02 
       5.640573705448e-01       1.694556313951e+02 
       5.872513584408e-01       1.607836808890e+02 
       6.124053649441e-01       1.523053914101e+02 
       6.399617653355e-01       1.440034586136e+02 
       6.705403934675e-01       1.358011118481e+02 
       7.050439745206e-01       1.276090398563e+02 
       7.448508734363e-01       1.193259288491e+02 
       7.921920248999e-01       1.107930854376e+02 
       8.509468625798e-01       1.017822729967e+02 
       9.284595959133e-01       9.193183861568e+01 
       1.039831088385e+00       8.068984380026e+01 
       1.215896780424e+00       6.749368627394e+01 
       1.496243164517e+00       5.314930803994e+01 
       1.880496108929e+00       4.043497154731e+01 
       2.367344017733e+00       3.013897011937e+01 
       2.980309316760e+00       2.191269758423e+01 
       3.751987133757e+00       1.547050754856e+01 
       4.723471947412e+00       1.057875222648e+01 
       5.946498866493e+00       7.006408745807e+00 
       7.486198534234e+00       4.507031281854e+00 
       9.424565572483e+00       2.828179144041e+00 
       1.186482509432e+01       1.739188274479e+00 
