# Matter power spectrum P(k) at redshift z=0.5
# for k=2.24252e-07 to 11.2533 h/Mpc,
# number of wavenumbers equal to 139
#    1:k (h/Mpc)              2:P (Mpc/h)^3        
       2.242517329970e-07       6.652521520076e-01 
       2.823162053088e-07       8.279350870645e-01 
       3.554150450246e-07       1.030401038453e+00 
       4.474410319154e-07       1.282378674778e+00 
       5.632948853578e-07       1.595975744773e+00 
       7.091462455106e-07       1.986260865075e+00 
       8.927622291517e-07       2.471987580161e+00 
       1.123921056969e-06       3.076495485608e+00 
       1.414932779469e-06       3.828831714137e+00 
       1.781294832054e-06       4.765146671764e+00 
       2.242517329970e-06       5.930431088334e+00 
       2.823162053088e-06       7.380677844086e+00 
       3.554150450246e-06       9.185572443916e+00 
       4.474410319154e-06       1.143184140022e+01 
       5.632948853578e-06       1.422741938554e+01 
       7.091462455106e-06       1.770663532856e+01 
       8.927622291517e-06       2.203666651990e+01 
       1.123921056969e-05       2.742557061128e+01 
       1.414932779469e-05       3.413228095863e+01 
       1.781294832054e-05       4.247904463546e+01 
       2.242517329970e-05       5.286689886698e+01 
       2.823162053088e-05       6.579492580508e+01 
       3.554150450246e-05       8.188420345812e+01 
       4.474410319154e-05       1.019075891123e+02 
       5.632948853578e-05       1.268267377343e+02 
       7.091462455106e-05       1.578380778794e+02 
       8.927622291517e-05       1.964298439894e+02 
       1.123921056969e-04       2.444526898536e+02 
       1.414932779469e-04       3.042068569499e+02 
       1.781294832054e-04       3.785492774067e+02 
       2.242517329970e-04       4.710242186019e+02 
       2.823162053088e-04       5.860208766500e+02 
       3.554150450246e-04       7.289603098284e+02 
       4.474410319154e-04       9.065117952172e+02 
       5.632948853578e-04       1.126834807208e+03 
       7.091462455106e-04       1.399837644911e+03 
       8.927622291517e-04       1.737437026481e+03 
       1.123921056969e-03       2.153786834060e+03 
       1.414932779469e-03       2.665394769186e+03 
       1.781294832054e-03       3.290938423747e+03 
       2.242517329970e-03       4.050696684689e+03 
       2.823162053088e-03       4.965214735927e+03 
       3.554150450246e-03       6.052868123728e+03 
       4.474410319154e-03       7.297006122906e+03 
       5.632948853578e-03       8.740926898617e+03 
       7.091462455106e-03       1.034242607399e+04 
       8.927622291517e-03       1.204414788190e+04 
       1.123921056969e-02       1.373883811697e+04 
       1.414932779469e-02       1.525358269738e+04 
       1.781294831988e-02       1.634451874132e+04 
       2.242517138587e-02       1.672783758148e+04 
       2.823083221098e-02       1.618867738227e+04 
       3.547538046896e-02       1.479555019024e+04 
       4.337273091147e-02       1.322741040027e+04 
       4.931958638819e-02       1.228426546543e+04 
       5.382148242865e-02       1.172363050570e+04 
       5.765694216322e-02       1.132668672230e+04 
       6.114158719585e-02       1.100681022455e+04 
       6.442517045369e-02       1.072145801033e+04 
       6.759073703294e-02       1.044609065708e+04 
       7.068978066864e-02       1.016554396658e+04 
       7.375699827245e-02       9.870721115114e+03 
       7.681734548916e-02       9.557179512287e+03 
       7.988975811952e-02       9.224415823034e+03 
       8.298926864322e-02       8.875344839409e+03 
       8.612828374812e-02       8.515736110087e+03 
       8.931739331990e-02       8.153504554711e+03 
       9.256590323513e-02       7.797836024222e+03 
       9.588219780737e-02       7.458190051740e+03 
       9.927399303922e-02       7.143258429798e+03 
       1.027485175005e-01       6.859971123518e+03 
       1.063126438082e-01       6.612633140457e+03 
       1.099729855068e-01       6.402258928092e+03 
       1.137359691544e-01       6.226162741254e+03 
       1.176078882990e-01       6.077879992297e+03 
       1.215949440202e-01       5.947531977265e+03 
       1.257032754058e-01       5.822781551289e+03 
       1.299389824725e-01       5.690488942315e+03 
       1.343081434606e-01       5.539020312568e+03 
       1.388168280543e-01       5.360857605756e+03 
       1.434711078238e-01       5.154817009138e+03 
       1.482770650196e-01       4.927014586790e+03 
       1.532408007419e-01       4.689940682567e+03 
       1.583684434419e-01       4.459626903126e+03 
       1.636661586660e-01       4.251625605165e+03 
       1.691401609317e-01       4.076941959169e+03 
       1.747967286037e-01       3.938977872448e+03 
       1.806422226286e-01       3.832199319879e+03 
       1.866831099790e-01       3.743019217217e+03 
       1.929259926554e-01       3.653295583649e+03 
       1.993776431011e-01       3.546290096226e+03 
       2.060450469021e-01       3.413427349262e+03 
       2.129354536865e-01       3.258545121630e+03 
       2.200564372059e-01       3.096565102178e+03 
       2.274159656937e-01       2.946541815866e+03 
       2.350224837645e-01       2.822632727849e+03 
       2.428850073597e-01       2.727540157355e+03 
       2.510132335858e-01       2.651332430837e+03 
       2.594176677513e-01       2.576494230922e+03 
       2.681097705279e-01       2.487803982526e+03 
       2.771021289876e-01       2.381921352720e+03 
       2.864086563526e-01       2.269353145502e+03 
       2.960448267394e-01       2.166220689418e+03 
       3.060279530865e-01       2.082105089420e+03 
       3.163775190096e-01       2.013392077135e+03 
       3.271155787617e-01       1.946972994243e+03 
       3.382672441558e-01       1.871892696985e+03 
       3.498612837541e-01       1.789203110979e+03 
       3.619308686345e-01       1.709657537965e+03 
       3.745145118193e-01       1.641320483255e+03 
       3.876572668600e-01       1.581078850132e+03 
       4.014122780781e-01       1.519575608204e+03 
       4.158428153279e-01       1.453547330035e+03 
       4.310249877771e-01       1.389086085756e+03 
       4.470514274370e-01       1.331069971151e+03 
       4.640363873301e-01       1.275715519653e+03 
       4.821229531297e-01       1.218352717806e+03 
       5.014934987854e-01       1.161622314721e+03 
       5.223852768457e-01       1.108104659685e+03 
       5.451144273467e-01       1.054545274883e+03 
       5.701143605158e-01       1.000449756606e+03 
       5.979998614502e-01       9.472504681128e+02 
       6.296798066538e-01       8.928101129751e+02 
       6.665677508207e-01       8.371657297012e+02 
       7.110042335270e-01       7.787043469364e+02 
       7.671731144099e-01       7.157788431025e+02 
       8.432373712439e-01       6.452254376681e+02 
       9.562662188401e-01       5.622606855943e+02 
       1.138703891415e+00       4.626353966532e+02 
       1.417399687255e+00       3.553520676465e+02 
       1.783543073093e+00       2.590755521794e+02 
       2.245338037818e+00       1.800877448779e+02 
       2.826713094491e+00       1.199874915152e+02 
       3.558620946502e+00       7.732399433141e+01 
       4.480038340494e+00       4.861320555411e+01 
       5.640034112660e+00       3.002477827492e+01 
       7.100382267814e+00       1.831337489414e+01 
       8.938851670403e+00       1.107289718460e+01 
       1.125334752013e+01       6.654435668700e+00 
