# Matter power spectrum P(k) at redshift z=0
# for k=1.649e-07 to 10.4155 h/Mpc,
# number of wavenumbers equal to 140
#    1:k (h/Mpc)              2:P (Mpc/h)^3        
       1.649003697786e-07       1.647277297046e+00 
       2.075972659285e-07       2.065174303698e+00 
       2.613494734964e-07       2.589087405295e+00 
       3.290194935436e-07       3.245911773862e+00 
       4.142110013977e-07       4.069365603722e+00 
       5.214607555043e-07       5.101721038870e+00 
       6.564801963578e-07       6.395974217853e+00 
       8.264596015344e-07       8.018565832907e+00 
       1.040450994193e-06       1.005279186047e+01 
       1.309850196316e-06       1.260307954724e+01 
       1.649003697786e-06       1.580034814517e+01 
       2.075972659285e-06       1.980872956281e+01 
       2.613494734964e-06       2.483399388508e+01 
       3.290194935436e-06       3.113411217515e+01 
       4.142110013977e-06       3.903249858756e+01 
       5.214607555043e-06       4.893461115034e+01 
       6.564801963578e-06       6.134876255775e+01 
       8.264596015344e-06       7.691220760858e+01 
       1.040450994193e-05       9.642384312240e+01 
       1.309850196316e-05       1.208851922679e+02 
       1.649003697786e-05       1.515517639533e+02 
       2.075972659285e-05       1.899973973792e+02 
       2.613494734964e-05       2.381948424585e+02 
       3.290194935436e-05       2.986166086737e+02 
       4.142110013977e-05       3.743610535493e+02 
       5.214607555043e-05       4.693097760756e+02 
       6.564801963578e-05       5.883235921950e+02 
       8.264596015344e-05       7.374855771289e+02 
       1.040450994193e-04       9.244005823463e+02 
       1.309850196316e-04       1.158560693936e+03 
       1.649003697786e-04       1.451784223643e+03 
       2.075972659285e-04       1.818730261374e+03 
       2.613494734964e-04       2.277479246849e+03 
       3.290194935436e-04       2.850150668129e+03 
       4.142110013977e-04       3.563503400777e+03 
       5.214607555043e-04       4.449437961524e+03 
       6.564801963578e-04       5.545283315182e+03 
       8.264596015344e-04       6.893623202241e+03 
       1.040450994193e-03       8.541104415477e+03 
       1.309850196316e-03       1.053548395040e+04 
       1.649003697786e-03       1.292023698781e+04 
       2.075972659285e-03       1.572591356796e+04 
       2.613494734964e-03       1.895770222924e+04 
       3.290194935436e-03       2.257923432859e+04 
       4.142110013977e-03       2.644811427563e+04 
       5.214607555043e-03       3.043876839146e+04 
       6.564801963578e-03       3.421241457984e+04 
       8.264596015344e-03       3.731154652843e+04 
       1.040450994193e-02       3.911793804084e+04 
       1.309850196315e-02       3.889620809386e+04 
       1.649003688317e-02       3.598870472674e+04 
       2.075964822625e-02       3.028026763332e+04 
       2.612333655816e-02       2.285676692427e+04 
       3.249128259700e-02       1.633668093499e+04 
       3.796124447060e-02       1.314678444658e+04 
       4.191144401682e-02       1.190599221637e+04 
       4.515263545718e-02       1.131626494976e+04 
       4.803888923686e-02       1.097335373536e+04 
       5.072667313771e-02       1.071286688934e+04 
       5.329823253549e-02       1.045044340093e+04 
       5.580263905565e-02       1.013862105335e+04 
       5.827200652786e-02       9.752491252436e+03 
       6.072890115499e-02       9.283986852425e+03 
       6.319011817881e-02       8.738768146405e+03 
       6.566877341259e-02       8.133537433524e+03 
       6.817553924793e-02       7.492993260380e+03 
       7.071941403405e-02       6.846300911547e+03 
       7.330822169044e-02       6.223338040223e+03 
       7.594894764302e-02       5.651179692532e+03 
       7.864797130612e-02       5.151304823833e+03 
       8.141123082903e-02       4.737844079682e+03 
       8.424434210625e-02       4.416893961349e+03 
       8.715268605502e-02       4.186612855391e+03 
       9.014147334309e-02       4.037663327254e+03 
       9.321579275777e-02       3.953699124388e+03 
       9.638064750462e-02       3.912015724876e+03 
       9.964098249123e-02       3.884968057506e+03 
       1.030017048403e-01       3.842939982189e+03 
       1.064676993378e-01       3.759205286595e+03 
       1.100438401633e-01       3.615954362156e+03 
       1.137350000117e-01       3.409556469716e+03 
       1.175460575576e-01       3.152601493779e+03 
       1.214819041120e-01       2.871098973075e+03 
       1.255474502575e-01       2.597304882100e+03 
       1.297476332043e-01       2.360833664864e+03 
       1.340874255880e-01       2.181401631646e+03 
       1.385718464093e-01       2.065124423882e+03 
       1.432059748104e-01       2.004051084892e+03 
       1.479949673709e-01       1.977843927666e+03 
       1.529440796052e-01       1.957884511505e+03 
       1.580586923451e-01       1.915202088288e+03 
       1.633443436998e-01       1.831453071356e+03 
       1.688067673140e-01       1.707647339699e+03 
       1.744519376863e-01       1.563885679361e+03 
       1.802861233891e-01       1.428825412614e+03 
       1.863159491467e-01       1.325491002223e+03 
       1.925484678973e-01       1.261760802192e+03 
       1.989912442066e-01       1.228540426595e+03 
       2.056524507304e-01       1.204552113218e+03 
       2.125409798667e-01       1.167055103080e+03 
       2.196665733346e-01       1.105383539132e+03 
       2.270399732008e-01       1.027756627256e+03 
       2.346730989144e-01       9.539101757608e+02 
       2.425792562878e-01       8.995801676344e+02 
       2.507733861928e-01       8.659859024508e+02 
       2.592723632017e-01       8.406474127121e+02 
       2.680953577356e-01       8.081716538036e+02 
       2.772642798544e-01       7.638380282827e+02 
       2.868043291758e-01       7.169244731116e+02 
       2.967446843678e-01       6.792780458940e+02 
       3.071193784856e-01       6.525367034862e+02 
       3.179684251132e-01       6.278667341758e+02 
       3.293392879955e-01       5.977259263490e+02 
       3.412888288313e-01       5.652157879697e+02 
       3.538859328752e-01       5.377274821859e+02 
       3.672151150429e-01       5.150776005839e+02 
       3.813815770973e-01       4.912194047410e+02 
       3.965184683542e-01       4.656775223329e+02 
       4.127975918087e-01       4.428149016328e+02 
       4.304456805114e-01       4.215060418825e+02 
       4.497700318734e-01       3.990112073561e+02 
       4.712005765539e-01       3.774934007440e+02 
       4.953623364672e-01       3.561367908455e+02 
       5.232075411428e-01       3.342283704289e+02 
       5.562731956537e-01       3.118694996920e+02 
       5.972231193214e-01       2.882012581625e+02 
       6.510811703970e-01       2.622840107505e+02 
       7.281482291125e-01       2.326656448774e+02 
       8.495687377350e-01       1.977276487900e+02 
       1.043603091352e+00       1.592297580686e+02 
       1.311270632592e+00       1.245590455877e+02 
       1.650740053968e+00       9.611460963374e+01 
       2.078158393064e+00       7.291331987517e+01 
       2.616246410640e+00       5.413145850533e+01 
       3.293659089871e+00       3.918372662136e+01 
       4.146471126025e+00       2.759525144940e+01 
       5.220097869823e+00       1.890634365736e+01 
       6.571713860373e+00       1.262282290882e+01 
       8.273297577864e+00       8.234558705969e+00 
       1.041546456011e+01       5.265302215672e+00 
