# Matter power spectrum P(k) at redshift z=0
# for k=1.5759e-07 to 12.5306 h/Mpc,
# number of wavenumbers equal to 141
#    1:k (h/Mpc)              2:P (Mpc/h)^3        
       1.575898001593e-07       2.431396125935e+00 
       1.983938040601e-07       3.030161109674e+00 
       2.497630014738e-07       3.776380264872e+00 
       3.144329894814e-07       4.706366222054e+00 
       3.958476807645e-07       5.865374097692e+00 
       4.983427045142e-07       7.309803702878e+00 
       6.273762944952e-07       9.109944074370e+00 
       7.898199598972e-07       1.135339387963e+01 
       9.943244182569e-07       1.414932413509e+01 
       1.251780277711e-06       1.763379066011e+01 
       1.575898001593e-06       2.197635476160e+01 
       1.983938040601e-06       2.738833428492e+01 
       2.497630014738e-06       3.413308646360e+01 
       3.144329894814e-06       4.253882279770e+01 
       3.958476807645e-06       5.301457923451e+01 
       4.983427045142e-06       6.607011818670e+01 
       6.273762944952e-06       8.234072962092e+01 
       7.898199598972e-06       1.026181356619e+02 
       9.943244182569e-06       1.278889978090e+02 
       1.251780277711e-05       1.593828911073e+02 
       1.575898001593e-05       1.986320611282e+02 
       1.983938040601e-05       2.475458346755e+02 
       2.497630014738e-05       3.085032324494e+02 
       3.144329894814e-05       3.844681467438e+02 
       3.958476807645e-05       4.791324063295e+02 
       4.983427045142e-05       5.970931349631e+02 
       6.273762944952e-05       7.440719461112e+02 
       7.898199598972e-05       9.271845189430e+02 
       9.943244182569e-05       1.155269569781e+03 
       1.251780277711e-04       1.439285382939e+03 
       1.575898001593e-04       1.792778490010e+03 
       1.983938040601e-04       2.232420565115e+03 
       2.497630014738e-04       2.778593355342e+03 
       3.144329894814e-04       3.455975831527e+03 
       3.958476807645e-04       4.294056005708e+03 
       4.983427045142e-04       5.327461111593e+03 
       6.273762944952e-04       6.595962308776e+03 
       7.898199598972e-04       8.143857772173e+03 
       9.943244182569e-04       1.001805643141e+04 
       1.251780277711e-03       1.226401868893e+04 
       1.575898001593e-03       1.491900016478e+04 
       1.983938040601e-03       1.800165847884e+04 
       2.497630014738e-03       2.149833416754e+04 
       3.144329894814e-03       2.534586863739e+04 
       3.958476807645e-03       2.940931642577e+04 
       4.983427045142e-03       3.340348176710e+04 
       6.273762944952e-03       3.707283527980e+04 
       7.898199598972e-03       3.989740035944e+04 
       9.943244182569e-03       4.126466418689e+04 
       1.251780277709e-02       4.049256454518e+04 
       1.575897988713e-02       3.703768693449e+04 
       1.983928298942e-02       3.094352777238e+04 
       2.496288698846e-02       2.341936378055e+04 
       3.099903216498e-02       1.705941869835e+04 
       3.608477296443e-02       1.401821132296e+04 
       3.977369387210e-02       1.278911493686e+04 
       4.281625562827e-02       1.215844260725e+04 
       4.553307150143e-02       1.174913889597e+04 
       4.806709051990e-02       1.140770276161e+04 
       5.049398293120e-02       1.105703328908e+04 
       5.285912504013e-02       1.065600118633e+04 
       5.519232478540e-02       1.018554955444e+04 
       5.751459079609e-02       9.642756666677e+03 
       5.984159770718e-02       9.037296523812e+03 
       6.218561187834e-02       8.388347589343e+03 
       6.455663251809e-02       7.721300417257e+03 
       6.696310356839e-02       7.064226742914e+03 
       6.941237681835e-02       6.444389999109e+03 
       7.191102376424e-02       5.885205966233e+03 
       7.446505169605e-02       5.404010307715e+03 
       7.708005698034e-02       5.010798469716e+03 
       7.976133587845e-02       4.707842693047e+03 
       8.251396586657e-02       4.489886510309e+03 
       8.534286597183e-02       4.344600237875e+03 
       8.825284187177e-02       4.253206240817e+03 
       9.124861974388e-02       4.191564253553e+03 
       9.433487170908e-02       4.132301397121e+03 
       9.751623496151e-02       4.048474517685e+03 
       1.007973261777e-01       3.918608606169e+03 
       1.041827524658e-01       3.731948512566e+03 
       1.076771198936e-01       3.491952681281e+03 
       1.112850404912e-01       3.216133786979e+03 
       1.150111385255e-01       2.931616236517e+03 
       1.188600567891e-01       2.667723570346e+03 
       1.228364636031e-01       2.448310692497e+03 
       1.269450612140e-01       2.286364953408e+03 
       1.311905962473e-01       2.181805551585e+03 
       1.355778728732e-01       2.121945062619e+03 
       1.401117693290e-01       2.084160114750e+03 
       1.447972584445e-01       2.041394151926e+03 
       1.496394328152e-01       1.970814637201e+03 
       1.546435352799e-01       1.863070332242e+03 
       1.598149953838e-01       1.726717201801e+03 
       1.651594725520e-01       1.583813626439e+03 
       1.706829067716e-01       1.458677916140e+03 
       1.763915776937e-01       1.366626518851e+03 
       1.822921732277e-01       1.308275090184e+03 
       1.883918689356e-01       1.270507200056e+03 
       1.946984198443e-01       1.233203476265e+03 
       2.012202667269e-01       1.180150488089e+03 
       2.079666594673e-01       1.108800746382e+03 
       2.149478008787e-01       1.030964981619e+03 
       2.221750153416e-01       9.629336848337e+02 
       2.296609479430e-01       9.133996397879e+02 
       2.374198015583e-01       8.783709496781e+02 
       2.454676216728e-01       8.456030845813e+02 
       2.538226419383e-01       8.052308087400e+02 
       2.625057078493e-01       7.581300911134e+02 
       2.715408020220e-01       7.134228804594e+02 
       2.809557031730e-01       6.778600495931e+02 
       2.907828232282e-01       6.491466273476e+02 
       3.010602849871e-01       6.199387865523e+02 
       3.118333294832e-01       5.873148473697e+02 
       3.231561826764e-01       5.555129827473e+02 
       3.350945738589e-01       5.283950200647e+02 
       3.477291977771e-01       5.037144715331e+02 
       3.611605750007e-01       4.779585892695e+02 
       3.755160383505e-01       4.524482937174e+02 
       3.909600485685e-01       4.292711653241e+02 
       4.077099015765e-01       4.066470722066e+02 
       4.260605112928e-01       3.838090308062e+02 
       4.464251674046e-01       3.619296727260e+02 
       4.694059105326e-01       3.399522406329e+02 
       4.959222289736e-01       3.178440572279e+02 
       5.274628218192e-01       2.951570051564e+02 
       5.666174334697e-01       2.713325005799e+02 
       6.182908914073e-01       2.454031660484e+02 
       6.925714951679e-01       2.160015822007e+02 
       8.100458135491e-01       1.817931532976e+02 
       9.970155666362e-01       1.450605732380e+02 
       1.253096155462e+00       1.128888151488e+02 
       1.577515367003e+00       8.694293115535e+01 
       1.985974037567e+00       6.602339138878e+01 
       2.500193182981e+00       4.921035961828e+01 
       3.147556732449e+00       3.586074880139e+01 
       3.962539155544e+00       2.547643796792e+01 
       4.988541238144e+00       1.762404817862e+01 
       6.280201332482e+00       1.188103726807e+01 
       7.906305048646e+00       7.821929545729e+00 
       9.953448339137e+00       5.043326506644e+00 
       1.253064904912e+01       3.194613786327e+00 
