# Matter power spectrum P(k) at redshift z=2
# for k=1.74953e-07 to 11.0522 h/Mpc,
# number of wavenumbers equal to 140
#    1:k (h/Mpc)              2:P (Mpc/h)^3        
       1.749530610417e-07       3.578509289601e-01 
       2.202528544166e-07       4.475196903626e-01 
       2.772819154453e-07       5.596572677568e-01 
       3.490772495851e-07       6.998938011980e-01 
       4.394622201818e-07       8.752702067210e-01 
       5.532501565104e-07       1.094591682637e+00 
       6.965006811100e-07       1.368869794982e+00 
       8.768424067814e-07       1.711875338845e+00 
       1.103879188036e-06       2.140829731693e+00 
       1.389701561369e-06       2.677269650930e+00 
       1.749530610417e-06       3.348128323894e+00 
       2.202528544166e-06       4.187087754209e+00 
       2.772819154453e-06       5.236269764371e+00 
       3.490772495851e-06       6.548350738398e+00 
       4.394622201818e-06       8.189206192298e+00 
       5.532501565104e-06       1.024121787342e+01 
       6.965006811100e-06       1.280740926062e+01 
       8.768424067814e-06       1.601661674521e+01 
       1.103879188036e-05       2.002995552864e+01 
       1.389701561369e-05       2.504890348181e+01 
       1.749530610417e-05       3.132540635738e+01 
       2.202528544166e-05       3.917450652842e+01 
       2.772819154453e-05       4.899011926338e+01 
       3.490772495851e-05       6.126472856472e+01 
       4.394622201818e-05       7.661395191236e+01 
       5.532501565104e-05       9.580712893529e+01 
       6.965006811100e-05       1.198053154060e+02 
       8.768424067814e-05       1.498082862041e+02 
       1.103879188036e-04       1.873123113573e+02 
       1.389701561369e-04       2.341804455456e+02 
       1.749530610417e-04       2.927266238422e+02 
       2.202528544166e-04       3.658135461573e+02 
       2.772819154453e-04       4.569614399793e+02 
       3.490772495851e-04       5.704593333115e+02 
       4.394622201818e-04       7.114616732558e+02 
       5.532501565104e-04       8.860419629840e+02 
       6.965006811100e-04       1.101166812608e+03 
       8.768424067814e-04       1.364555739549e+03 
       1.103879188036e-03       1.684387855259e+03 
       1.389701561369e-03       2.068723644916e+03 
       1.749530610417e-03       2.524326532373e+03 
       2.202528544166e-03       3.054754640880e+03 
       2.772819154453e-03       3.658008069416e+03 
       3.490772495851e-03       4.323560679556e+03 
       4.394622201818e-03       5.028573209437e+03 
       5.532501565104e-03       5.734086263275e+03 
       6.965006811100e-03       6.381328488056e+03 
       8.768424067814e-03       6.888817691062e+03 
       1.103879188036e-02       7.152310127876e+03 
       1.389701561369e-02       7.053686054550e+03 
       1.749530607196e-02       6.492442817243e+03 
       2.202524988872e-02       5.457694394613e+03 
       2.772153243077e-02       4.130591694637e+03 
       3.461853074034e-02       2.935691191846e+03 
       4.092462272866e-02       2.316274162543e+03 
       4.543962075783e-02       2.083216798106e+03 
       4.908088597744e-02       1.975177507248e+03 
       5.229401324543e-02       1.911607934218e+03 
       5.527061849212e-02       1.861613071277e+03 
       5.810915454913e-02       1.810065739459e+03 
       6.086741723244e-02       1.748881020025e+03 
       6.358277381872e-02       1.674181066845e+03 
       6.628123235673e-02       1.585153637771e+03 
       6.898199826117e-02       1.483405710543e+03 
       7.169997010891e-02       1.372401168058e+03 
       7.444720175239e-02       1.256848469494e+03 
       7.723380606477e-02       1.142028059766e+03 
       8.006853843403e-02       1.033118225984e+03 
       8.295918723754e-02       9.346043716945e+02 
       8.591284300610e-02       8.498483689861e+02 
       8.893608855165e-02       7.808538732253e+02 
       9.203513595825e-02       7.282091501269e+02 
       9.521592684649e-02       6.911407097719e+02 
       9.848420662663e-02       6.676029697027e+02 
       1.018455799356e-01       6.543704920549e+02 
       1.053055522213e-01       6.471813250917e+02 
       1.088695609964e-01       6.410537432749e+02 
       1.125429993344e-01       6.309007344489e+02 
       1.163312335567e-01       6.124540400513e+02 
       1.202396166355e-01       5.833036247358e+02 
       1.242734985657e-01       5.436712041524e+02 
       1.284382347694e-01       4.965129900053e+02 
       1.327391934813e-01       4.467741007815e+02 
       1.371817629850e-01       4.000086294821e+02 
       1.417713595220e-01       3.608934662780e+02 
       1.465134366683e-01       3.321591168271e+02 
       1.514134969489e-01       3.141417225407e+02 
       1.564771064549e-01       3.048284180038e+02 
       1.617099132138e-01       3.002586640264e+02 
       1.671176700627e-01       2.954056427047e+02 
       1.727062627728e-01       2.857084057206e+02 
       1.784817441850e-01       2.688998943519e+02 
       1.844503751400e-01       2.460990739417e+02 
       1.906186730329e-01       2.212382641007e+02 
       1.969934688998e-01       1.990222238730e+02 
       2.035819740642e-01       1.826994940906e+02 
       2.103918575489e-01       1.728226245435e+02 
       2.174313357083e-01       1.672637851979e+02 
       2.247092758854e-01       1.623031352155e+02 
       2.322353163608e-01       1.545966612702e+02 
       2.400200054920e-01       1.431903686982e+02 
       2.480749637636e-01       1.300096392208e+02 
       2.564130735673e-01       1.182065207286e+02 
       2.650487029783e-01       1.097757554025e+02 
       2.739979717235e-01       1.043213405981e+02 
       2.832790701181e-01       9.963423578381e+01 
       2.929126452468e-01       9.361387912370e+01 
       3.029222734498e-01       8.608097800960e+01 
       3.133350448112e-01       7.866853273117e+01 
       3.241822946854e-01       7.288297177818e+01 
       3.355005306380e-01       6.856116807305e+01 
       3.473326225567e-01       6.432243550491e+01 
       3.597293523735e-01       5.937618233139e+01 
       3.727514631209e-01       5.439211898944e+01 
       3.864724138209e-01       5.025659095945e+01 
       4.009821521961e-01       4.671450410661e+01 
       4.163923883408e-01       4.301238593799e+01 
       4.328441384980e-01       3.926310554152e+01 
       4.505188021349e-01       3.596399143535e+01 
       4.696549214391e-01       3.287055336312e+01 
       4.905744296227e-01       2.973432809328e+01 
       5.137254473063e-01       2.681773605403e+01 
       5.397554296624e-01       2.398810252065e+01 
       5.696433366615e-01       2.120829200027e+01 
       6.049545941861e-01       1.848500894580e+01 
       6.483713549513e-01       1.576026621765e+01 
       7.048859657707e-01       1.298436554918e+01 
       7.846263398895e-01       1.010745528850e+01 
       9.086597140286e-01       7.147774054855e+00 
       1.108764300718e+00       4.440929720848e+00 
       1.391475237423e+00       2.559739991968e+00 
       1.751651737464e+00       1.453090219169e+00 
       2.205198301780e+00       8.188951608896e-01 
       2.776180179696e+00       4.585048734051e-01 
       3.495003775938e+00       2.552028292341e-01 
       4.399949067845e+00       1.412760323475e-01 
       5.539207692110e+00       7.781874690402e-02 
       6.973449324803e+00       4.266782115607e-02 
       8.779052562854e+00       2.329504929977e-02 
       1.105217236285e+01       1.266771266333e-02 
