# Matter power spectrum P(k) at redshift z=0.5
# for k=2.32511e-07 to 11.6696 h/Mpc,
# number of wavenumbers equal to 139
#    1:k (h/Mpc)              2:P (Mpc/h)^3        
       2.325109365254e-07       3.605315027423e-01 
       2.927139265119e-07       4.520570208464e-01 
       3.685050004719e-07       5.668174583756e-01 
       4.639203094673e-07       7.107112957469e-01 
       5.840410666358e-07       8.911344176575e-01 
       7.352641403192e-07       1.117360248089e+00 
       9.256427106288e-07       1.401016387460e+00 
       1.165315130653e-06       1.756682249635e+00 
       1.467044830727e-06       2.202638416439e+00 
       1.846900017643e-06       2.761806224205e+00 
       2.325109365254e-06       3.462925874283e+00 
       2.927139265119e-06       4.342033617519e+00 
       3.685050004719e-06       5.444313932980e+00 
       4.639203094673e-06       6.826421889337e+00 
       5.840410666358e-06       8.559395034168e+00 
       7.352641403192e-06       1.073230443916e+01 
       9.256427106288e-06       1.345683248036e+01 
       1.165315130653e-05       1.687301249099e+01 
       1.467044830727e-05       2.115642498641e+01 
       1.846900017643e-05       2.652721973432e+01 
       2.325109365254e-05       3.326142617867e+01 
       2.927139265119e-05       4.170513116981e+01 
       3.685050004719e-05       5.229224795898e+01 
       4.639203094673e-05       6.556678034156e+01 
       5.840410666358e-05       8.221070760288e+01 
       7.352641403192e-05       1.030788865543e+02 
       9.256427106288e-05       1.292426914218e+02 
       1.165315130653e-04       1.620444906807e+02 
       1.467044830727e-04       2.031654785598e+02 
       1.846900017643e-04       2.547097987931e+02 
       2.325109365254e-04       3.193082304873e+02 
       2.927139265119e-04       4.002447811422e+02 
       3.685050004719e-04       5.016090717628e+02 
       4.639203094673e-04       6.284760419283e+02 
       5.840410666358e-04       7.871119750873e+02 
       7.352641403192e-04       9.852022204999e+02 
       9.256427106288e-04       1.232090962223e+03 
       1.165315130653e-03       1.539011390676e+03 
       1.467044830727e-03       1.919248661687e+03 
       1.846900017643e-03       2.388118561270e+03 
       2.325109365254e-03       2.962626297042e+03 
       2.927139265119e-03       3.660609122524e+03 
       3.685050004719e-03       4.499090506661e+03 
       4.639203094673e-03       5.465850163987e+03 
       5.840410666358e-03       6.603975561748e+03 
       7.352641403192e-03       7.885433045656e+03 
       9.256427106288e-03       9.274613497090e+03 
       1.165315130653e-02       1.070057801240e+04 
       1.467044830727e-02       1.204641793370e+04 
       1.846900017087e-02       1.314638750309e+04 
       2.325108400908e-02       1.380724897139e+04 
       2.926878203071e-02       1.387782259194e+04 
       3.669563591226e-02       1.338173764996e+04 
       4.413924347738e-02       1.271840203288e+04 
       4.950847102580e-02       1.227305035566e+04 
       5.371519462038e-02       1.195753453066e+04 
       5.737029967820e-02       1.169985312608e+04 
       6.072704301686e-02       1.146781200269e+04 
       6.391086505325e-02       1.124439883029e+04 
       6.699350746441e-02       1.101965628166e+04 
       7.002046785744e-02       1.078774343892e+04 
       7.302293975204e-02       1.054572412780e+04 
       7.602367623826e-02       1.029298853075e+04 
       7.904014606506e-02       1.003089226367e+04 
       8.208635732446e-02       9.762432186961e+03 
       8.517397228793e-02       9.491871934820e+03 
       8.831302071185e-02       9.224284625921e+03 
       9.151237363426e-02       8.965012830479e+03 
       9.478006796684e-02       8.719070670914e+03 
       9.812353461672e-02       8.490530323016e+03 
       1.015497621838e-01       8.281947298801e+03 
       1.050654163922e-01       8.093886014323e+03 
       1.086769283339e-01       7.924617950648e+03 
       1.123905602513e-01       7.770071612752e+03 
       1.162124548431e-01       7.624119235447e+03 
       1.201486723125e-01       7.479268492837e+03 
       1.242052182194e-01       7.327772325074e+03 
       1.283880644335e-01       7.163060481143e+03 
       1.327031649766e-01       6.981242555982e+03 
       1.371564682013e-01       6.782292728706e+03 
       1.417539265318e-01       6.570481922249e+03 
       1.465015048426e-01       6.353748636980e+03 
       1.514051884608e-01       6.141991782535e+03 
       1.564709917146e-01       5.944622829753e+03 
       1.617049679161e-01       5.767988456840e+03 
       1.671132216436e-01       5.613373901497e+03 
       1.727019241709e-01       5.476243157254e+03 
       1.784773328833e-01       5.347191313155e+03 
       1.844458155137e-01       5.214722024785e+03 
       1.906138800302e-01       5.069293821056e+03 
       1.969882110149e-01       4.907214415264e+03 
       2.035757134000e-01       4.732473856692e+03 
       2.103835644662e-01       4.555197814729e+03 
       2.174192750933e-01       4.387080123390e+03 
       2.246907613672e-01       4.235887611893e+03 
       2.322064278356e-01       4.101762687162e+03 
       2.399752639594e-01       3.977314495497e+03 
       2.480069556654e-01       3.851806675783e+03 
       2.563120143966e-01       3.717514373679e+03 
       2.649019267035e-01       3.574423952283e+03 
       2.737893282873e-01       3.429797462601e+03 
       2.829882075478e-01       3.292607928195e+03 
       2.925141452019e-01       3.166950253723e+03 
       3.023845985480e-01       3.049488764987e+03 
       3.126192416382e-01       2.932941697857e+03 
       3.232403762510e-01       2.812706672369e+03 
       3.342734335089e-01       2.690630135818e+03 
       3.457475928369e-01       2.572259485034e+03 
       3.576965545604e-01       2.460635666079e+03 
       3.701595161119e-01       2.353502710273e+03 
       3.831824216062e-01       2.246836607121e+03 
       3.968195836933e-01       2.139976884658e+03 
       4.111358204066e-01       2.035624355139e+03 
       4.262093169443e-01       1.935239245135e+03 
       4.421355279396e-01       1.837135276994e+03 
       4.590326060669e-01       1.739838922926e+03 
       4.770491254336e-01       1.644242909380e+03 
       4.963753526048e-01       1.550924704052e+03 
       5.172601791080e-01       1.458823964758e+03 
       5.400374239502e-01       1.367609629573e+03 
       5.651683094260e-01       1.277398949976e+03 
       5.933132470172e-01       1.187410399880e+03 
       6.254598354215e-01       1.097125271065e+03 
       6.631659568713e-01       1.005635950517e+03 
       7.090565362805e-01       9.116561552941e+02 
       7.679225604614e-01       8.132822167928e+02 
       8.493106945760e-01       7.078519358694e+02 
       9.732415139922e-01       5.925434079555e+02 
       1.174274072455e+00       4.691426834765e+02 
       1.469375781247e+00       3.516374224146e+02 
       1.849511435246e+00       2.509349133121e+02 
       2.328394491378e+00       1.703678368739e+02 
       2.931274990818e+00       1.111085077111e+02 
       3.690256574897e+00       7.039230829723e+01 
       4.645757778178e+00       4.371151939796e+01 
       5.848662523989e+00       2.677738942869e+01 
       7.363029876458e+00       1.625501446833e+01 
       9.269505419272e+00       9.807641504521e+00 
       1.166961592709e+01       5.893478863947e+00 
