# Matter power spectrum P(k) at redshift z=2.5
# for k=2.29416e-07 to 11.5097 h/Mpc,
# number of wavenumbers equal to 139
#    1:k (h/Mpc)              2:P (Mpc/h)^3        
       2.294155176768e-07       1.228853286832e-01 
       2.888170250632e-07       1.525562606737e-01 
       3.635990922108e-07       1.893913041816e-01 
       4.577441368895e-07       2.351202496127e-01 
       5.762657260300e-07       2.918905490021e-01 
       7.254755664452e-07       3.623681611447e-01 
       9.133196262336e-07       4.498627463090e-01 
       1.149801286556e-06       5.584830890036e-01 
       1.447514058159e-06       6.933300476923e-01 
       1.822312231745e-06       8.607360928738e-01 
       2.294155176768e-06       1.068562680023e+00 
       2.888170250632e-06       1.326569423380e+00 
       3.635990922108e-06       1.646872403248e+00 
       4.577441368895e-06       2.044513128080e+00 
       5.762657260300e-06       2.538164856393e+00 
       7.254755664452e-06       3.151009442067e+00 
       9.133196262336e-06       3.911825840788e+00 
       1.149801286556e-05       4.856341341113e+00 
       1.447514058159e-05       6.028908865044e+00 
       1.822312231745e-05       7.484588866535e+00 
       2.294155176768e-05       9.291733162561e+00 
       2.888170250632e-05       1.153519115985e+01 
       3.635990922108e-05       1.432028733363e+01 
       4.577441368895e-05       1.777775336016e+01 
       5.762657260300e-05       2.206983991341e+01 
       7.254755664452e-05       2.739788212390e+01 
       9.133196262336e-05       3.401164849837e+01 
       1.149801286556e-04       4.222086239570e+01 
       1.447514058159e-04       5.240933976767e+01 
       1.822312231745e-04       6.505221788991e+01 
       2.294155176768e-04       8.073671972486e+01 
       2.888170250632e-04       1.001867350824e+02 
       3.635990922108e-04       1.242910777388e+02 
       4.577441368895e-04       1.541344027431e+02 
       5.762657260300e-04       1.910282105136e+02 
       7.254755664452e-04       2.365370353762e+02 
       9.133196262336e-04       2.924923133912e+02 
       1.149801286556e-03       3.609849856680e+02 
       1.447514058159e-03       4.443278775076e+02 
       1.822312231745e-03       5.449706886818e+02 
       2.294155176768e-03       6.653144148421e+02 
       2.888170250632e-03       8.073482041737e+02 
       3.635990922108e-03       9.721183437703e+02 
       4.577441368895e-03       1.159024213604e+03 
       5.762657260300e-03       1.364179718991e+03 
       7.254755664452e-03       1.581577766032e+03 
       9.133196262336e-03       1.798605552324e+03 
       1.149801286556e-02       1.996701652794e+03 
       1.447514058159e-02       2.150180371181e+03 
       1.822312231739e-02       2.227385652318e+03 
       2.294155144075e-02       2.196662576710e+03 
       2.888148808239e-02       2.041304661708e+03 
       3.633361985007e-02       1.783835162517e+03 
       4.499095208009e-02       1.514527368314e+03 
       5.207132758097e-02       1.351950811810e+03 
       5.724980569835e-02       1.262635448200e+03 
       6.155530300076e-02       1.201273961155e+03 
       6.541619520620e-02       1.151888798930e+03 
       6.902623546495e-02       1.107637217578e+03 
       7.248912865296e-02       1.065071669094e+03 
       7.586755710247e-02       1.022379378252e+03 
       7.920294387683e-02       9.787125512137e+02 
       8.252462275074e-02       9.338787708038e+02 
       8.585456577832e-02       8.881603441655e+02 
       8.921002479767e-02       8.421789491273e+02 
       9.260510348201e-02       7.967730499739e+02 
       9.605174148986e-02       7.528777434323e+02 
       9.956035653918e-02       7.114083472450e+02 
       1.031402778053e-01       6.731526300195e+02 
       1.068000468091e-01       6.386792203606e+02 
       1.105476311966e-01       6.082680191055e+02 
       1.143905794909e-01       5.818673454497e+02 
       1.183361347626e-01       5.590815447948e+02 
       1.223913190263e-01       5.391937030649e+02 
       1.265629963517e-01       5.212296103177e+02 
       1.308579202402e-01       5.040682491323e+02 
       1.352827692384e-01       4.865979764947e+02 
       1.398441737146e-01       4.679033919586e+02 
       1.445487360346e-01       4.474492994972e+02 
       1.494030459111e-01       4.252117585801e+02 
       1.544136923938e-01       4.017062617133e+02 
       1.595872737672e-01       3.778846982580e+02 
       1.649304064921e-01       3.549125755986e+02 
       1.704497342435e-01       3.338808127277e+02 
       1.761519380468e-01       3.155291017178e+02 
       1.820437484791e-01       3.000537592769e+02 
       1.881319608863e-01       2.870498134488e+02 
       1.944234545483e-01       2.756121452128e+02 
       2.009252167178e-01       2.645937702540e+02 
       2.076443724545e-01       2.529746039870e+02 
       2.145882211783e-01       2.402264507708e+02 
       2.217642808842e-01       2.265123200576e+02 
       2.291803409934e-01       2.125966025926e+02 
       2.368445248878e-01       1.994817743043e+02 
       2.447653632771e-01       1.879416492938e+02 
       2.529518797174e-01       1.781775902191e+02 
       2.614136898390e-01       1.697575038954e+02 
       2.701611161793e-01       1.618685600988e+02 
       2.792053209813e-01       1.537717967628e+02 
       2.885584599403e-01       1.452140366414e+02 
       2.982338607147e-01       1.365273548294e+02 
       3.082462311150e-01       1.283339243256e+02 
       3.186119033409e-01       1.210725422450e+02 
       3.293491225632e-01       1.147006822763e+02 
       3.404783907166e-01       1.087833421818e+02 
       3.520228798180e-01       1.028830683583e+02 
       3.640089338119e-01       9.691652699180e+01 
       3.764666843750e-01       9.115350398930e+01 
       3.894308150701e-01       8.587764936904e+01 
       4.029415208855e-01       8.108214261857e+01 
       4.170457283544e-01       7.652154850835e+01 
       4.317986679470e-01       7.202621971530e+01 
       4.472659298522e-01       6.767247737335e+01 
       4.635261941057e-01       6.360285652264e+01 
       4.806749189083e-01       5.979112623612e+01 
       4.988294187532e-01       5.610823225152e+01 
       5.181360055840e-01       5.253598103109e+01 
       5.387802734551e-01       4.913647365450e+01 
       5.610023175185e-01       4.588203936132e+01 
       5.851199660249e-01       4.271408289063e+01 
       6.115655434173e-01       3.964318622109e+01 
       6.409465390106e-01       3.664920954324e+01 
       6.741507866402e-01       3.369417818028e+01 
       7.125397295017e-01       3.075692429027e+01 
       7.583286004077e-01       2.778853544873e+01 
       8.153944431163e-01       2.473086458811e+01 
       8.911301908673e-01       2.149609711334e+01 
       1.000813030937e+00       1.797631385041e+01 
       1.175266131229e+00       1.415305182582e+01 
       1.450849610453e+00       1.049014404213e+01 
       1.824200353725e+00       7.688886960970e+00 
       2.296493259283e+00       5.682403436149e+00 
       2.891113596196e+00       4.211140732341e+00 
       3.639696374579e+00       3.105857737676e+00 
       4.582106257173e+00       2.263407956175e+00 
       5.768530006696e+00       1.619828787022e+00 
       7.262149014127e+00       1.133063606633e+00 
       9.142503938121e+00       7.722959239619e-01 
       1.150973053513e+01       5.121454647767e-01 
