# Matter power spectrum P(k) at redshift z=1
# for k=1.90052e-07 to 12.0069 h/Mpc,
# number of wavenumbers equal to 140
#    1:k (h/Mpc)              2:P (Mpc/h)^3        
       1.900519824239e-07       5.523295246620e-01 
       2.392612702353e-07       6.909207862276e-01 
       3.012120931573e-07       8.642875515916e-01 
       3.792035584154e-07       1.081155736164e+00 
       4.773889959320e-07       1.352440773006e+00 
       6.009971382897e-07       1.691797008953e+00 
       7.566105698084e-07       2.116304955519e+00 
       9.525162731639e-07       2.647330984218e+00 
       1.199146941434e-06       3.311602736169e+00 
       1.509636557046e-06       4.142554369972e+00 
       1.900519824239e-06       5.182009351774e+00 
       2.392612702353e-06       6.482285476069e+00 
       3.012120931573e-06       8.108828047955e+00 
       3.792035584154e-06       1.014350371554e+01 
       4.773889959320e-06       1.268872066054e+01 
       6.009971382897e-06       1.587258236298e+01 
       7.566105698084e-06       1.985533401736e+01 
       9.525162731639e-06       2.483742543185e+01 
       1.199146941434e-05       3.106959497974e+01 
       1.509636557046e-05       3.886547964555e+01 
       1.900519824239e-05       4.861738094126e+01 
       2.392612702353e-05       6.081597043352e+01 
       3.012120931573e-05       7.607490733589e+01 
       3.792035584154e-05       9.516156889333e+01 
       4.773889959320e-05       1.190353644143e+02 
       6.009971382897e-05       1.488954116510e+02 
       7.566105698084e-05       1.862396798281e+02 
       9.525162731639e-05       2.329379963014e+02 
       1.199146941434e-04       2.913214584995e+02 
       1.509636557046e-04       3.642905575643e+02 
       1.900519824239e-04       4.554432658699e+02 
       2.392612702353e-04       5.692217090014e+02 
       3.012120931573e-04       7.110707008355e+02 
       3.792035584154e-04       8.875921407351e+02 
       4.773889959320e-04       1.106665986367e+03 
       6.009971382897e-04       1.377494969975e+03 
       7.566105698084e-04       1.710524515655e+03 
       9.525162731639e-04       2.117185907514e+03 
       1.199146941434e-03       2.609342147588e+03 
       1.509636557046e-03       3.198119359116e+03 
       1.900519824239e-03       3.891836421604e+03 
       2.392612702353e-03       4.693179955690e+03 
       3.012120931573e-03       5.595544204395e+03 
       3.792035584154e-03       6.578869501436e+03 
       4.773889959320e-03       7.605325566123e+03 
       6.009971382897e-03       8.606391805892e+03 
       7.566105698084e-03       9.516502074817e+03 
       9.525162731639e-03       1.022704021501e+04 
       1.199146941434e-02       1.062207209981e+04 
       1.509636557046e-02       1.058592118283e+04 
       1.900519822124e-02       1.003318744913e+04 
       2.392610055027e-02       8.963519513400e+03 
       3.011571211221e-02       7.532009175125e+03 
       3.765955301869e-02       6.095984141492e+03 
       4.474527989461e-02       5.152753133183e+03 
       4.981491949954e-02       4.662350968484e+03 
       5.387135878382e-02       4.337735492429e+03 
       5.743591435391e-02       4.080200063983e+03 
       6.073026544862e-02       3.853781948506e+03 
       6.386716108157e-02       3.642923740241e+03 
       6.691231297496e-02       3.440695394380e+03 
       6.990797901261e-02       3.244546187208e+03 
       7.288344771719e-02       3.054376835457e+03 
       7.586027257194e-02       2.871461008132e+03 
       7.885512510820e-02       2.697728105109e+03 
       8.188145992757e-02       2.535231043917e+03 
       8.495054068912e-02       2.385737053534e+03 
       8.807210085391e-02       2.250422914256e+03 
       9.125478493302e-02       2.129671118726e+03 
       9.450645212613e-02       2.022966113530e+03 
       9.783439049743e-02       1.928891090254e+03 
       1.012454711180e-01       1.845227653689e+03 
       1.047462607843e-01       1.769160575662e+03 
       1.083431054407e-01       1.697587050414e+03 
       1.120421924373e-01       1.627513527836e+03 
       1.158495972201e-01       1.556495842499e+03 
       1.197713184211e-01       1.483043329975e+03 
       1.238133042375e-01       1.406884996148e+03 
       1.279814722853e-01       1.329002005094e+03 
       1.322817246342e-01       1.251379742571e+03 
       1.367199594178e-01       1.176512354587e+03 
       1.413020802061e-01       1.106775143746e+03 
       1.460340041893e-01       1.043827265316e+03 
       1.509216701395e-01       9.882015243465e+02 
       1.559710470558e-01       9.391892211250e+02 
       1.611881443728e-01       8.950593558785e+02 
       1.665790245831e-01       8.535761823725e+02 
       1.721498191158e-01       8.126898444038e+02 
       1.779067483003e-01       7.711838251024e+02 
       1.838561462422e-01       7.290229920223e+02 
       1.900044914355e-01       6.872296699738e+02 
       1.963584439475e-01       6.473234744663e+02 
       2.029248900386e-01       6.105837654204e+02 
       2.097109951273e-01       5.774850398235e+02 
       2.167242660936e-01       5.475612016343e+02 
       2.239726240455e-01       5.197379041663e+02 
       2.314644888608e-01       4.929405472861e+02 
       2.392088770907e-01       4.666352593070e+02 
       2.472155151821e-01       4.409895153647e+02 
       2.554949704857e-01       4.165800644504e+02 
       2.640588031910e-01       3.938872207200e+02 
       2.729197432259e-01       3.729493237324e+02 
       2.820918973457e-01       3.533987950408e+02 
       2.915909932044e-01       3.347924795252e+02 
       3.014346692877e-01       3.169293774151e+02 
       3.116428223823e-01       2.998948934379e+02 
       3.222380280352e-01       2.838457611564e+02 
       3.332460546281e-01       2.687895177485e+02 
       3.446964988531e-01       2.545739708229e+02 
       3.566235804453e-01       2.410457003190e+02 
       3.690671483977e-01       2.281621428947e+02 
       3.820739717350e-01       2.159413553756e+02 
       3.956994187465e-01       2.043574636529e+02 
       4.100096750333e-01       1.933329290153e+02 
       4.250847222803e-01       1.828064233550e+02 
       4.410224125375e-01       1.727514753539e+02 
       4.579441555843e-01       1.631342382166e+02 
       4.760030418126e-01       1.539017391712e+02 
       4.953957485046e-01       1.450067607194e+02 
       5.163805172205e-01       1.364058645057e+02 
       5.393052431144e-01       1.280432101299e+02 
       5.646531467827e-01       1.198576300383e+02 
       5.931205831614e-01       1.117767456828e+02 
       6.257570978153e-01       1.037072741578e+02 
       6.642343923015e-01       9.552634241640e+01 
       7.114028986842e-01       8.705841395052e+01 
       7.725384726054e-01       7.804132928896e+01 
       8.582917408117e-01       6.808394767308e+01 
       9.908975267041e-01       5.676980861856e+01 
       1.205393793459e+00       4.455920373896e+01 
       1.511715306913e+00       3.376189087475e+01 
       1.902973814759e+00       2.534558491853e+01 
       2.395701145790e+00       1.880177313684e+01 
       3.016009050645e+00       1.370001248801e+01 
       3.796930436058e+00       9.758491271109e+00 
       4.780052212768e+00       6.771136271063e+00 
       6.017729200356e+00       4.566896611300e+00 
       7.575872211624e+00       2.992814125037e+00 
       9.537458043719e+00       1.908910085833e+00 
       1.200694829516e+01       1.189079374065e+00 
