# Matter power spectrum P(k) at redshift z=2
# for k=2.04187e-07 to 10.2477 h/Mpc,
# number of wavenumbers equal to 139
#    1:k (h/Mpc)              2:P (Mpc/h)^3        
       2.041865216954e-07       3.561003417828e-01 
       2.570556009082e-07       4.416542258746e-01 
       3.236138282273e-07       5.477626170446e-01 
       4.074056719634e-07       6.793637806337e-01 
       5.128933533438e-07       8.425824104487e-01 
       6.456944760648e-07       1.045014671115e+00 
       8.128811841731e-07       1.296081721869e+00 
       1.023356779525e-06       1.607468174822e+00 
       1.288329855076e-06       1.993665893304e+00 
       1.621911193328e-06       2.472648438269e+00 
       2.041865216954e-06       3.066707549766e+00 
       2.570556009082e-06       3.803490588998e+00 
       3.236138282273e-06       4.717287222724e+00 
       4.074056719634e-06       5.850625221614e+00 
       5.128933533438e-06       7.256249614691e+00 
       6.456944760648e-06       8.999577286351e+00 
       8.128811841731e-06       1.116174117516e+01 
       1.023356779525e-05       1.384336560431e+01 
       1.288329855076e-05       1.716924818866e+01 
       1.621911193328e-05       2.129416566397e+01 
       2.041865216954e-05       2.641007278831e+01 
       2.570556009082e-05       3.275502726823e+01 
       3.236138282273e-05       4.062425200960e+01 
       4.074056719634e-05       5.038384150004e+01 
       5.128933533438e-05       6.248773448732e+01 
       6.456944760648e-05       7.749871206925e+01 
       8.128811841731e-05       9.611433792097e+01 
       1.023356779525e-04       1.191989300760e+02 
       1.288329855076e-04       1.478228221962e+02 
       1.621911193328e-04       1.833102964508e+02 
       2.041865216954e-04       2.272975639481e+02 
       2.570556009082e-04       2.818018721148e+02 
       3.236138282273e-04       3.493019560216e+02 
       4.074056719634e-04       4.328282130479e+02 
       5.128933533438e-04       5.360577267446e+02 
       6.456944760648e-04       6.634045421637e+02 
       8.128811841731e-04       8.200905034643e+02 
       1.023356779525e-03       1.012178348420e+03 
       1.288329855076e-03       1.246541654156e+03 
       1.621911193328e-03       1.530708186497e+03 
       2.041865216954e-03       1.872429637513e+03 
       2.570556009082e-03       2.278836006131e+03 
       3.236138282273e-03       2.755160947976e+03 
       4.074056719634e-03       3.302810064799e+03 
       5.128933533438e-03       3.909968545618e+03 
       6.456944760648e-03       4.571241763998e+03 
       8.128811841731e-03       5.251576867986e+03 
       1.023356779525e-02       5.900557936111e+03 
       1.288329855076e-02       6.444287780737e+03 
       1.621911193154e-02       6.787528658848e+03 
       2.041864829133e-02       6.831403388976e+03 
       2.570426687928e-02       6.519468009527e+03 
       3.227019631410e-02       5.915154880084e+03 
       3.915324174045e-02       5.306827507634e+03 
       4.420268296319e-02       4.943565469173e+03 
       4.809194489089e-02       4.708727718657e+03 
       5.143934406460e-02       4.527962355775e+03 
       5.449747155952e-02       4.372125820949e+03 
       5.738881084592e-02       4.227286976847e+03 
       6.018235800440e-02       4.085950105573e+03 
       6.292138615248e-02       3.944034620470e+03 
       6.563530983716e-02       3.799625571569e+03 
       6.834543555441e-02       3.652352640489e+03 
       7.106802609027e-02       3.503005545334e+03 
       7.381605734664e-02       3.353227678439e+03 
       7.660028556982e-02       3.205225435841e+03 
       7.942992670017e-02       3.061472539384e+03 
       8.231310571002e-02       2.924410016959e+03 
       8.525716336435e-02       2.796156697134e+03 
       8.826887119132e-02       2.678249821347e+03 
       9.135458538364e-02       2.571436697501e+03 
       9.452035887857e-02       2.475538539305e+03 
       9.777202405786e-02       2.389407953335e+03 
       1.011152543422e-01       2.310999299629e+03 
       1.045556103355e-01       2.237570257514e+03 
       1.080985744908e-01       2.166022879910e+03 
       1.117495771715e-01       2.093365562273e+03 
       1.155140162533e-01       2.017241006814e+03 
       1.193972719285e-01       1.936417612678e+03 
       1.234047180533e-01       1.851112469376e+03 
       1.275417311632e-01       1.763019659528e+03 
       1.318136981457e-01       1.674981066643e+03 
       1.362260234643e-01       1.590337878652e+03 
       1.407841367774e-01       1.512108764477e+03 
       1.454935017545e-01       1.442205581628e+03 
       1.503596268746e-01       1.380901283899e+03 
       1.553880789738e-01       1.326714983791e+03 
       1.605845003017e-01       1.276797634305e+03 
       1.659546298396e-01       1.227787372858e+03 
       1.715043296311e-01       1.176934569548e+03 
       1.772396168837e-01       1.123110267801e+03 
       1.831667026178e-01       1.067233706216e+03 
       1.892920376773e-01       1.011834443081e+03 
       1.956223669816e-01       9.598775887451e+02 
       2.021647930055e-01       9.133880040428e+02 
       2.089268496262e-01       8.725373161994e+02 
       2.159165877034e-01       8.356472665696e+02 
       2.231426740706e-01       8.001446281096e+02 
       2.306145060370e-01       7.640125383652e+02 
       2.383423440705e-01       7.269070717170e+02 
       2.463374660855e-01       6.901829200108e+02 
       2.546123477570e-01       6.557734709532e+02 
       2.631808746030e-01       6.247388597426e+02 
       2.720585933292e-01       5.965649127793e+02 
       2.812630122705e-01       5.697218118369e+02 
       2.908139639250e-01       5.430019507697e+02 
       3.007340468739e-01       5.164630240026e+02 
       3.110491703304e-01       4.911062184775e+02 
       3.217892328692e-01       4.676691748853e+02 
       3.329889787073e-01       4.458519346452e+02 
       3.446890919704e-01       4.247871834051e+02 
       3.569376144630e-01       4.041024259216e+02 
       3.697918100584e-01       3.841953513158e+02 
       3.833206563607e-01       3.654339179396e+02 
       3.976082344249e-01       3.475521292053e+02 
       4.127584321550e-01       3.301366764664e+02 
       4.289016164689e-01       3.132406493581e+02 
       4.462043380598e-01       2.970164623851e+02 
       4.648838557007e-01       2.812547332223e+02 
       4.852305991859e-01       2.657887218655e+02 
       5.076442595946e-01       2.506352135856e+02 
       5.326944181022e-01       2.356189194611e+02 
       5.612278871407e-01       2.205786589660e+02 
       5.945708848958e-01       2.053118158594e+02 
       6.349382622823e-01       1.894961984832e+02 
       6.863301313279e-01       1.726566901341e+02 
       7.566343503180e-01       1.540582049691e+02 
       8.623894205513e-01       1.327091709733e+02 
       1.033729814104e+00       1.083939834546e+02 
       1.290491215561e+00       8.462002152719e+01 
       1.624155144613e+00       6.487553372237e+01 
       2.044685759260e+00       4.881695133019e+01 
       2.574106854439e+00       3.579695629483e+01 
       3.240608531726e+00       2.544265662273e+01 
       4.079684430267e+00       1.747610233678e+01 
       5.136018401364e+00       1.160471565025e+01 
       6.465864080920e+00       7.475315376996e+00 
       8.140040600677e+00       4.694408793618e+00 
       1.024770396523e+01       2.888487461889e+00 
