# Matter power spectrum P(k) at redshift z=0.5
# for k=1.94355e-07 to 12.2777 h/Mpc,
# number of wavenumbers equal to 140
#    1:k (h/Mpc)              2:P (Mpc/h)^3        
       1.943549131321e-07       9.214609362833e-01 
       2.446783390491e-07       1.142212552376e+00 
       3.080317787445e-07       1.415848966598e+00 
       3.877890339016e-07       1.755039630117e+00 
       4.881974691938e-07       2.175489175429e+00 
       6.146041999417e-07       2.696664545709e+00 
       7.737408455020e-07       3.342696318841e+00 
       9.740820125456e-07       4.143495958511e+00 
       1.226296598765e-06       5.136140719619e+00 
       1.543815950582e-06       6.366590328019e+00 
       1.943549131321e-06       7.891814912459e+00 
       2.446783390491e-06       9.782432704058e+00 
       3.080317787445e-06       1.212597961415e+01 
       3.877890339016e-06       1.503096204092e+01 
       4.881974691938e-06       1.863188048353e+01 
       6.146041999417e-06       2.309545643895e+01 
       7.737408455020e-06       2.862835063894e+01 
       9.740820125456e-06       3.548672950390e+01 
       1.226296598765e-05       4.398812178815e+01 
       1.543815950582e-05       5.452611252962e+01 
       1.943549131321e-05       6.758855096857e+01 
       2.446783390491e-05       8.378010828541e+01 
       3.080317787445e-05       1.038502154894e+02 
       3.877890339016e-05       1.287276473202e+02 
       4.881974691938e-05       1.595632992102e+02 
       6.146041999417e-05       1.977830318056e+02 
       7.737408455020e-05       2.451528227544e+02 
       9.740820125456e-05       3.038588395618e+02 
       1.226296598765e-04       3.766053623970e+02 
       1.543815950582e-04       4.667335995061e+02 
       1.943549131321e-04       5.783640823803e+02 
       2.446783390491e-04       7.165640471072e+02 
       3.080317787445e-04       8.875383418749e+02 
       3.877890339016e-04       1.098837275122e+03 
       4.881974691938e-04       1.359567398178e+03 
       6.146041999417e-04       1.680582919620e+03 
       7.737408455020e-04       2.074626712693e+03 
       9.740820125456e-04       2.556366109078e+03 
       1.226296598765e-03       3.142188355675e+03 
       1.543815950582e-03       3.849508937545e+03 
       1.943549131321e-03       4.695385332170e+03 
       2.446783390491e-03       5.694177157468e+03 
       3.080317787445e-03       6.853988258829e+03 
       3.877890339016e-03       8.171573066921e+03 
       4.881974691938e-03       9.603171061829e+03 
       6.146041999417e-03       1.113383719768e+04 
       7.737408455020e-03       1.266102177029e+04 
       9.740820125456e-03       1.404853458022e+04 
       1.226296598765e-02       1.510500406893e+04 
       1.543815950544e-02       1.559329961475e+04 
       1.943549009381e-02       1.528139913839e+04 
       2.446728942073e-02       1.406738780070e+04 
       3.075438972276e-02       1.217559166608e+04 
       3.769904470178e-02       1.037573094788e+04 
       4.299232388524e-02       9.379527904014e+03 
       4.697357339938e-02       8.814952530916e+03 
       5.035179455613e-02       8.420107119562e+03 
       5.341433404463e-02       8.099964678412e+03 
       5.629639657718e-02       7.811310641782e+03 
       5.907250649085e-02       7.531350304944e+03 
       6.178867157019e-02       7.247629419706e+03 
       6.447578824811e-02       6.954090961409e+03 
       6.715601873566e-02       6.649219489858e+03 
       6.984614139546e-02       6.334935181148e+03 
       7.255945039632e-02       6.015727775257e+03 
       7.530689953600e-02       5.697828722626e+03 
       7.809782512093e-02       5.388361213530e+03 
       8.094042126864e-02       5.094481228397e+03 
       8.384206280645e-02       4.822558853667e+03 
       8.680953063870e-02       4.577460199345e+03 
       8.984917256284e-02       4.361981657025e+03 
       9.296702008280e-02       4.176473860672e+03 
       9.616887443518e-02       4.018681338292e+03 
       9.946037057672e-02       3.883827458318e+03 
       1.028470250852e-01       3.764990594013e+03 
       1.063342721348e-01       3.653825160007e+03 
       1.099274905411e-01       3.541654006029e+03 
       1.136320240981e-01       3.420866477285e+03 
       1.174531969202e-01       3.286407022032e+03 
       1.213963251584e-01       3.136984818148e+03 
       1.254667262347e-01       2.975575351432e+03 
       1.296697265905e-01       2.808904210869e+03 
       1.340106688482e-01       2.645906602758e+03 
       1.384949192257e-01       2.495523114763e+03 
       1.431278760037e-01       2.364435386279e+03 
       1.479149798243e-01       2.255347806852e+03 
       1.528617265836e-01       2.166238225995e+03 
       1.579736836683e-01       2.090798357148e+03 
       1.632565102832e-01       2.020128255086e+03 
       1.687159826131e-01       1.945490884117e+03 
       1.743580245656e-01       1.861411141874e+03 
       1.801887448593e-01       1.767835970050e+03 
       1.862144812557e-01       1.670087821871e+03 
       1.924418527913e-01       1.576338580427e+03 
       1.988778209642e-01       1.493764454352e+03 
       2.055297609732e-01       1.425293227773e+03 
       2.124055443178e-01       1.368455011220e+03 
       2.195136343592e-01       1.316850490877e+03 
       2.268631968405e-01       1.263683681716e+03 
       2.344642279021e-01       1.205634871448e+03 
       2.423277028369e-01       1.144606317297e+03 
       2.504657497758e-01       1.085909578323e+03 
       2.588918537353e-01       1.034161653843e+03 
       2.676210981147e-01       9.900119904190e+02 
       2.766704529342e-01       9.500763814719e+02 
       2.860591220712e-01       9.100237297776e+02 
       2.958089657954e-01       8.682741457921e+02 
       3.059450204603e-01       8.269297325369e+02 
       3.164961449804e-01       7.890446240054e+02 
       3.274958347242e-01       7.552502491655e+02 
       3.389832593065e-01       7.234098058369e+02 
       3.510046039920e-01       6.914698862419e+02 
       3.636148291182e-01       6.598311267895e+02 
       3.768800148547e-01       6.301401103495e+02 
       3.908805411599e-01       6.025326826117e+02 
       4.057154848410e-01       5.756511704194e+02 
       4.215088328618e-01       5.490643930930e+02 
       4.384184797631e-01       5.235378395878e+02 
       4.566496252591e-01       4.989779745536e+02 
       4.764753736970e-01       4.746598405881e+02 
       4.982696054754e-01       4.507045281389e+02 
       5.225617584553e-01       4.269888005654e+02 
       5.501329058762e-01       4.030382744381e+02 
       5.821947193252e-01       3.786355927297e+02 
       6.207471172216e-01       3.531561963207e+02 
       6.693514602747e-01       3.258027705325e+02 
       7.349281815881e-01       2.952255524367e+02 
       8.319257811614e-01       2.593816066698e+02 
       9.881753837903e-01       2.166031814442e+02 
       1.228482244993e+00       1.712145879184e+02 
       1.545678492638e+00       1.313240448057e+02 
       1.945883166979e+00       9.812490803042e+01 
       2.449721743735e+00       7.104374219536e+01 
       3.084016955007e+00       4.968458550427e+01 
       3.882547315062e+00       3.358038935463e+01 
       4.887837477425e+00       2.201229063217e+01 
       6.153422809050e+00       1.406255592924e+01 
       7.746700343827e+00       8.798443880040e+00 
       9.752517920398e+00       5.415167318507e+00 
       1.227769263897e+01       3.290902582114e+00 
