# Matter power spectrum P(k) at redshift z=2.5
# for k=2.24252e-07 to 11.2533 h/Mpc,
# number of wavenumbers equal to 139
#    1:k (h/Mpc)              2:P (Mpc/h)^3        
       2.242517329970e-07       1.401853306561e-01 
       2.823162053088e-07       1.744667094546e-01 
       3.554150450246e-07       2.171313686023e-01 
       4.474410319154e-07       2.702293828762e-01 
       5.632948853578e-07       3.363121589412e-01 
       7.091462455106e-07       4.185550326422e-01 
       8.927622291517e-07       5.209098467307e-01 
       1.123921056969e-06       6.482948401246e-01 
       1.414932779469e-06       8.068309732379e-01 
       1.781294832054e-06       1.004136044861e+00 
       2.242517329970e-06       1.249690732830e+00 
       2.823162053088e-06       1.555294145015e+00 
       3.554150450246e-06       1.935630771862e+00 
       4.474410319154e-06       2.408976076842e+00 
       5.632948853578e-06       2.998074624311e+00 
       7.091462455106e-06       3.731232930648e+00 
       8.927622291517e-06       4.643679522807e+00 
       1.123921056969e-05       5.779257519719e+00 
       1.414932779469e-05       7.192530971852e+00 
       1.781294832054e-05       8.951406004619e+00 
       2.242517329970e-05       1.114039236446e+01 
       2.823162053088e-05       1.386466143015e+01 
       3.554150450246e-05       1.725509434068e+01 
       4.474410319154e-05       2.147456021923e+01 
       5.632948853578e-05       2.672572101396e+01 
       7.091462455106e-05       3.326072787474e+01 
       8.927622291517e-05       4.139325512336e+01 
       1.123921056969e-04       5.151341097385e+01 
       1.414932779469e-04       6.410616509353e+01 
       1.781294832054e-04       7.977402945106e+01 
       2.242517329970e-04       9.926479398705e+01 
       2.823162053088e-04       1.235050978178e+02 
       3.554150450246e-04       1.536404111323e+02 
       4.474410319154e-04       1.910814506332e+02 
       5.632948853578e-04       2.375559400113e+02 
       7.091462455106e-04       2.951627977405e+02 
       8.927622291517e-04       3.664234681343e+02 
       1.123921056969e-03       4.543229304094e+02 
       1.414932779469e-03       5.623305516144e+02 
       1.781294832054e-03       6.943747794427e+02 
       2.242517329970e-03       8.547379910397e+02 
       2.823162053088e-03       1.047758654756e+03 
       3.554150450246e-03       1.277313061370e+03 
       4.474410319154e-03       1.544271847245e+03 
       5.632948853578e-03       1.851232639116e+03 
       7.091462455106e-03       2.192434849505e+03 
       8.927622291517e-03       2.556059390341e+03 
       1.123921056969e-02       2.919663451671e+03 
       1.414932779469e-02       3.246620546087e+03 
       1.781294831988e-02       3.484638190217e+03 
       2.242517138587e-02       3.572003471793e+03 
       2.823083221098e-02       3.460902135909e+03 
       3.547538046896e-02       3.164042919661e+03 
       4.337273091147e-02       2.825632831825e+03 
       4.931958638819e-02       2.618842296885e+03 
       5.382148242865e-02       2.493333449040e+03 
       5.765694216322e-02       2.402462737726e+03 
       6.114158719585e-02       2.327793805957e+03 
       6.442517045369e-02       2.260367056235e+03 
       6.759073703294e-02       2.195117075697e+03 
       7.068978066864e-02       2.129009376107e+03 
       7.375699827245e-02       2.060309029026e+03 
       7.681734548916e-02       1.988250102503e+03 
       7.988975811952e-02       1.912854494689e+03 
       8.298926864322e-02       1.834796276617e+03 
       8.612828374812e-02       1.755266461023e+03 
       8.931739331990e-02       1.675819537272e+03 
       9.256590323513e-02       1.598197508744e+03 
       9.588219780737e-02       1.524140309684e+03 
       9.927399303922e-02       1.455193680367e+03 
       1.027485175005e-01       1.392531268231e+03 
       1.063126438082e-01       1.336805647537e+03 
       1.099729855068e-01       1.288042631005e+03 
       1.137359691544e-01       1.245592158644e+03 
       1.176078882990e-01       1.208150993925e+03 
       1.215949440202e-01       1.173874375204e+03 
       1.257032754058e-01       1.140589979708e+03 
       1.299389824725e-01       1.106114068823e+03 
       1.343081434606e-01       1.068639681255e+03 
       1.388168280543e-01       1.027126741590e+03 
       1.434711078238e-01       9.815902311264e+02 
       1.482770650196e-01       9.331766872852e+02 
       1.532408007419e-01       8.839624589099e+02 
       1.583684434419e-01       8.364874962930e+02 
       1.636661586660e-01       7.931313983993e+02 
       1.691401609317e-01       7.554943538425e+02 
       1.747967286037e-01       7.239484184410e+02 
       1.806422226286e-01       6.974860678548e+02 
       1.866831099790e-01       6.739451691187e+02 
       1.929259926554e-01       6.506256090463e+02 
       1.993776431011e-01       6.251915106957e+02 
       2.060450469021e-01       5.965695301496e+02 
       2.129354536865e-01       5.654230681831e+02 
       2.200564372059e-01       5.338813310070e+02 
       2.274159656937e-01       5.045673672978e+02 
       2.350224837645e-01       4.793730540196e+02 
       2.428850073597e-01       4.585767703170e+02 
       2.510132335858e-01       4.407353427659e+02 
       2.594176677513e-01       4.234575876322e+02 
       2.681097705279e-01       4.047590450058e+02 
       2.771021289876e-01       3.842521181784e+02 
       2.864086563526e-01       3.633161026312e+02 
       2.960448267394e-01       3.440213004370e+02 
       3.060279530865e-01       3.275760388191e+02 
       3.163775190096e-01       3.134737918393e+02 
       3.271155787617e-01       3.000023622542e+02 
       3.382672441558e-01       2.857572348084e+02 
       3.498612837541e-01       2.708624320294e+02 
       3.619308686345e-01       2.566649157375e+02 
       3.745145118193e-01       2.441800116342e+02 
       3.876572668600e-01       2.329993639398e+02 
       4.014122780781e-01       2.219087327626e+02 
       4.158428153279e-01       2.104650858904e+02 
       4.310249877771e-01       1.994318247809e+02 
       4.470514274370e-01       1.894399477012e+02 
       4.640363873301e-01       1.799891481602e+02 
       4.821229531297e-01       1.704377284453e+02 
       5.014934987854e-01       1.611195667967e+02 
       5.223852768457e-01       1.523878442532e+02 
       5.451144273467e-01       1.437822615803e+02 
       5.701143605158e-01       1.352161261580e+02 
       5.979998614502e-01       1.269029664514e+02 
       6.296798066538e-01       1.185197989280e+02 
       6.665677508207e-01       1.100887805476e+02 
       7.110042335270e-01       1.013812588512e+02 
       7.671731144099e-01       9.220307493645e+01 
       8.432373712439e-01       8.217852812631e+01 
       9.562662188401e-01       7.082756118467e+01 
       1.138703891415e+00       5.800423986140e+01 
       1.417399687255e+00       4.540463910012e+01 
       1.783543073093e+00       3.504023214371e+01 
       2.245338037818e+00       2.671091397865e+01 
       2.826713094491e+00       1.995207590736e+01 
       3.558620946502e+00       1.450584243993e+01 
       4.480038340494e+00       1.021600943045e+01 
       5.640034112660e+00       6.953523414775e+00 
       7.100382267814e+00       4.578461352262e+00 
       8.938851670403e+00       2.927219826811e+00 
       1.125334752013e+01       1.826229318341e+00 
