# Matter power spectrum P(k) at redshift z=1.5
# for k=1.99483e-07 to 10.0083 h/Mpc,
# number of wavenumbers equal to 139
#    1:k (h/Mpc)              2:P (Mpc/h)^3        
       1.994833860935e-07       4.825264413819e-01 
       2.511347039838e-07       5.977934006916e-01 
       3.161598606286e-07       7.405955801031e-01 
       3.980216827347e-07       9.175106522888e-01 
       5.010796108398e-07       1.136687578072e+00 
       6.308218554182e-07       1.408221958934e+00 
       7.941576641011e-07       1.744621054193e+00 
       9.997852643079e-07       2.161379881666e+00 
       1.258655075575e-06       2.677694936820e+00 
       1.584552859325e-06       3.317348406366e+00 
       1.994833860935e-06       4.109803595803e+00 
       2.511347039838e-06       5.091562028835e+00 
       3.161598606286e-06       6.307844714972e+00 
       3.980216827347e-06       7.814675002031e+00 
       5.010796108398e-06       9.681458914442e+00 
       6.308218554182e-06       1.199418174618e+01 
       7.941576641011e-06       1.485936798134e+01 
       9.997852643079e-06       1.840898662604e+01 
       1.258655075575e-05       2.280652723851e+01 
       1.584552859325e-05       2.825452533016e+01 
       1.994833860935e-05       3.500388125491e+01 
       2.511347039838e-05       4.336539708968e+01 
       3.161598606286e-05       5.372405343756e+01 
       3.980216827347e-05       6.655666530884e+01 
       5.010796108398e-05       8.245369408618e+01 
       6.308218554182e-05       1.021461494095e+02 
       7.941576641011e-05       1.265386814703e+02 
       9.997852643079e-05       1.567501181038e+02 
       1.258655075575e-04       1.941627900130e+02 
       1.584552859325e-04       2.404819073903e+02 
       1.994833860935e-04       2.978058016870e+02 
       2.511347039838e-04       3.687066751145e+02 
       3.161598606286e-04       4.563190519013e+02 
       3.980216827347e-04       5.644287005067e+02 
       5.010796108398e-04       6.975480005071e+02 
       6.308218554182e-04       8.609556836498e+02 
       7.941576641011e-04       1.060673618337e+03 
       9.997852643079e-04       1.303353618381e+03 
       1.258655075575e-03       1.596032230645e+03 
       1.584552859325e-03       1.945622428199e+03 
       1.994833860935e-03       2.357914019408e+03 
       2.511347039838e-03       2.836061038992e+03 
       3.161598606286e-03       3.378623893498e+03 
       3.980216827347e-03       3.977090282265e+03 
       5.010796108398e-03       4.612958122633e+03 
       6.308218554182e-03       5.250545094357e+03 
       7.941576641011e-03       5.850098514237e+03 
       9.997852643079e-03       6.345285631216e+03 
       1.258655075575e-02       6.657681028870e+03 
       1.584552859323e-02       6.701388598195e+03 
       1.994833847725e-02       6.404297932390e+03 
       2.511336497004e-02       5.751845458899e+03 
       3.160082095497e-02       4.847732744665e+03 
       3.927976011082e-02       3.966972308854e+03 
       4.582440818224e-02       3.445381060932e+03 
       5.055869364844e-02       3.172358054658e+03 
       5.445142760782e-02       2.989284429830e+03 
       5.792173178041e-02       2.843206086702e+03 
       6.115548382616e-02       2.712952744700e+03 
       6.425066639692e-02       2.588564168441e+03 
       6.726585967122e-02       2.465237324667e+03 
       7.023945865155e-02       2.341060937689e+03 
       7.319847586091e-02       2.215957504377e+03 
       7.616303579686e-02       2.091060873828e+03 
       7.914886743556e-02       1.968259686772e+03 
       8.216877881614e-02       1.849810535682e+03 
       8.523357574388e-02       1.737993489811e+03 
       8.835265880451e-02       1.634811154436e+03 
       9.153442503437e-02       1.541742871140e+03 
       9.478654603137e-02       1.459564911847e+03 
       9.811616511650e-02       1.388243927267e+03 
       1.015300398063e-01       1.326906803129e+03 
       1.050346463230e-01       1.273891933506e+03 
       1.086362571158e-01       1.226891180560e+03 
       1.123409987974e-01       1.183192635106e+03 
       1.161548956237e-01       1.140026462427e+03 
       1.200839021770e-01       1.094988458265e+03 
       1.241339279372e-01       1.046474579575e+03 
       1.283108557887e-01       9.940205241185e+02 
       1.326205560769e-01       9.384282930457e+02 
       1.370688975452e-01       8.816008733738e+02 
       1.416617562982e-01       8.260902548376e+02 
       1.464050238098e-01       7.744644173141e+02 
       1.513046149222e-01       7.286634705640e+02 
       1.563664767317e-01       6.895163727967e+02 
       1.615965992250e-01       6.565381122953e+02 
       1.670010285134e-01       6.280635377301e+02 
       1.725858834975e-01       6.017164910363e+02 
       1.783573767878e-01       5.751371083609e+02 
       1.843218407006e-01       5.467701659632e+02 
       1.904857591531e-01       5.164055840194e+02 
       1.968558062934e-01       4.851852586247e+02 
       2.034388927313e-01       4.550196742018e+02 
       2.102422202917e-01       4.276778238045e+02 
       2.172733463054e-01       4.039940419153e+02 
       2.245402585915e-01       3.835604009956e+02 
       2.320514624934e-01       3.650304745890e+02 
       2.398160816221e-01       3.468840442680e+02 
       2.478439743580e-01       3.282560647000e+02 
       2.561458687042e-01       3.093344013436e+02 
       2.647335188007e-01       2.910599294571e+02 
       2.736198873626e-01       2.743574538897e+02 
       2.828193595627e-01       2.594755951949e+02 
       2.923479955448e-01       2.459019327310e+02 
       3.022238309757e-01       2.328623344947e+02 
       3.124672380202e-01       2.199597937116e+02 
       3.231013631644e-01       2.073962478054e+02 
       3.341526638509e-01       1.956157244075e+02 
       3.456515735920e-01       1.847845046342e+02 
       3.576333360851e-01       1.746569751409e+02 
       3.701390644154e-01       1.649093018968e+02 
       3.832171041007e-01       1.554884638856e+02 
       3.969248123913e-01       1.465530762914e+02 
       4.113309172114e-01       1.381588833136e+02 
       4.265186980613e-01       1.301719371940e+02 
       4.425903564413e-01       1.224846280407e+02 
       4.596731474980e-01       1.151238341312e+02 
       4.779281875560e-01       1.080978465398e+02 
       4.975634481526e-01       1.013303787198e+02 
       5.188535230606e-01       9.477918673565e+01 
       5.421707827791e-01       8.842771989538e+01 
       5.680365461759e-01       8.221733970681e+01 
       5.972093050337e-01       7.609505597684e+01 
       6.308457783522e-01       6.999351664746e+01 
       6.708153287850e-01       6.381887795643e+01 
       7.203626446950e-01       5.743994588097e+01 
       7.856174773651e-01       5.066262376532e+01 
       8.791642542425e-01       4.322072727599e+01 
       1.026776433130e+00       3.495064725244e+01 
       1.262295967843e+00       2.660274428891e+01 
       1.586246720449e+00       1.981868782014e+01 
       1.996909170716e+00       1.474203120876e+01 
       2.513959477294e+00       1.089123019526e+01 
       3.164887470062e+00       7.936773668747e+00 
       3.984357261530e+00       5.672401567474e+00 
       5.016008606207e+00       3.959170369259e+00 
       6.314780700133e+00       2.691450669699e+00 
       7.949837893304e+00       1.779782087974e+00 
       1.000825294352e+01       1.145135076851e+00 
