# Matter power spectrum P(k) at redshift z=2
# for k=2.15622e-07 to 10.8206 h/Mpc,
# number of wavenumbers equal to 139
#    1:k (h/Mpc)              2:P (Mpc/h)^3        
       2.156223732048e-07       1.431422940485e-01 
       2.714524849789e-07       1.794312046639e-01 
       3.417384314347e-07       2.249199470060e-01 
       4.302231955198e-07       2.819408287954e-01 
       5.416189135831e-07       3.534174356777e-01 
       6.818578138182e-07       4.430145299134e-01 
       8.584081290461e-07       5.553259506170e-01 
       1.080671807347e-06       6.961101497182e-01 
       1.360485200078e-06       8.725854395000e-01 
       1.712749390749e-06       1.093800091209e+00 
       2.156223732048e-06       1.371096255683e+00 
       2.714524849789e-06       1.718691496724e+00 
       3.417384314347e-06       2.154407746989e+00 
       4.302231955198e-06       2.700585059165e+00 
       5.416189135831e-06       3.385226991041e+00 
       6.818578138182e-06       4.243436335049e+00 
       8.584081290461e-06       5.319214768380e+00 
       1.080671807347e-05       6.667718619883e+00 
       1.360485200078e-05       8.358086272223e+00 
       1.712749390749e-05       1.047698187624e+01 
       2.156223732048e-05       1.313303650453e+01 
       2.714524849789e-05       1.646241332118e+01 
       3.417384314347e-05       2.063577986318e+01 
       4.302231955198e-05       2.586704045541e+01 
       5.416189135831e-05       3.242426767450e+01 
       6.818578138182e-05       4.064337578035e+01 
       8.584081290461e-05       5.094520256396e+01 
       1.080671807347e-04       6.385680684768e+01 
       1.360485200078e-04       8.003793874238e+01 
       1.712749390749e-04       1.003137754534e+02 
       2.156223732048e-04       1.257150875006e+02 
       2.714524849789e-04       1.575269096634e+02 
       3.417384314347e-04       1.973463617753e+02 
       4.302231955198e-04       2.471492214953e+02 
       5.416189135831e-04       3.093628669333e+02 
       6.818578138182e-04       3.869401416836e+02 
       8.584081290461e-04       4.834251078707e+02 
       1.080671807347e-03       6.029987196080e+02 
       1.360485200078e-03       7.504876168064e+02 
       1.712749390749e-03       9.312955472658e+02 
       2.156223732048e-03       1.151160668101e+03 
       2.714524849789e-03       1.415632831068e+03 
       3.417384314347e-03       1.729247059079e+03 
       4.302231955198e-03       2.094235509923e+03 
       5.416189135831e-03       2.508610498897e+03 
       6.818578138182e-03       2.963559095786e+03 
       8.584081290461e-03       3.440154599528e+03 
       1.080671807347e-02       3.905542112612e+03 
       1.360485200078e-02       4.309659779963e+03 
       1.712749390673e-02       4.585488551450e+03 
       2.156223523046e-02       4.659688510799e+03 
       2.714441594976e-02       4.483675913741e+03 
       3.410589876826e-02       4.088872890575e+03 
       4.165112454130e-02       3.662697474645e+03 
       4.730617884838e-02       3.404858462851e+03 
       5.159882749610e-02       3.244165250939e+03 
       5.526205649629e-02       3.123404875404e+03 
       5.859320287913e-02       3.020426771738e+03 
       6.173383284031e-02       2.924752673844e+03 
       6.476264830451e-02       2.830739705555e+03 
       6.772853866512e-02       2.735288851729e+03 
       7.066449190895e-02       2.636921226100e+03 
       7.359426115389e-02       2.535331248980e+03 
       7.653588662223e-02       2.431113751543e+03 
       7.950370127738e-02       2.325544983119e+03 
       8.250954265279e-02       2.220369507321e+03 
       8.556352087132e-02       2.117577127543e+03 
       8.867452479996e-02       2.019170779654e+03 
       9.185056656813e-02       1.926938346931e+03 
       9.509902240467e-02       1.842242725787e+03 
       9.842680471358e-02       1.765848185524e+03 
       1.018404871931e-01       1.697798665843e+03 
       1.053463970483e-01       1.637364430990e+03 
       1.089506836167e-01       1.583073438045e+03 
       1.126593697558e-01       1.532844149135e+03 
       1.164783904422e-01       1.484231520998e+03 
       1.204136217893e-01       1.434780416668e+03 
       1.244709028696e-01       1.382450658942e+03 
       1.286560521833e-01       1.326037642286e+03 
       1.329748802530e-01       1.265480959209e+03 
       1.374331995792e-01       1.201948998805e+03 
       1.420368330393e-01       1.137631108341e+03 
       1.467916217061e-01       1.075250679387e+03 
       1.517034330000e-01       1.017403907879e+03 
       1.567781700494e-01       9.658933883551e+02 
       1.620217831062e-01       9.212348374329e+02 
       1.674402838502e-01       8.824815413347e+02 
       1.730397634027e-01       8.474520155493e+02 
       1.788264148640e-01       8.133649617295e+02 
       1.848065611873e-01       7.777555602212e+02 
       1.909866892072e-01       7.393795795626e+02 
       1.973734906587e-01       6.987057368195e+02 
       2.039739110633e-01       6.576965574923e+02 
       2.107952074236e-01       6.189060827413e+02 
       2.178450157776e-01       5.842968851842e+02 
       2.251314298266e-01       5.543451303529e+02 
       2.326630920836e-01       5.278732546546e+02 
       2.404492993148e-01       5.027245228210e+02 
       2.485001244944e-01       4.769817619343e+02 
       2.568265580850e-01       4.500582259875e+02 
       2.654406722519e-01       4.229354471967e+02 
       2.743558126664e-01       3.973382317637e+02 
       2.835868239403e-01       3.744333751233e+02 
       2.931503165721e-01       3.540234670897e+02 
       3.030649857454e-01       3.348351276882e+02 
       3.133519956225e-01       3.156549610502e+02 
       3.240354472896e-01       2.963316705596e+02 
       3.351429547132e-01       2.777135164561e+02 
       3.467063617523e-01       2.606159207697e+02 
       3.587626455794e-01       2.449459660290e+02 
       3.713550696152e-01       2.299286560235e+02 
       3.845346751310e-01       2.150957300786e+02 
       3.983622396196e-01       2.007517490040e+02 
       4.129108895290e-01       1.873383341893e+02 
       4.282696478934e-01       1.747146595273e+02 
       4.445483463472e-01       1.624613008769e+02 
       4.618845765208e-01       1.505757126980e+02 
       4.804537734312e-01       1.392717862393e+02 
       5.004842594271e-01       1.284174707472e+02 
       5.222804270698e-01       1.178351148493e+02 
       5.462598300111e-01       1.075897227682e+02 
       5.730151864125e-01       9.758864586064e+01 
       6.034235176017e-01       8.772530896008e+01 
       6.388503074798e-01       7.792955399731e+01 
       6.815595145587e-01       6.804690385197e+01 
       7.356045921374e-01       5.789658783256e+01 
       8.089073880445e-01       4.723653824693e+01 
       9.180423023734e-01       3.587959117323e+01 
       1.094325941268e+00       2.432578305626e+01 
       1.362840112584e+00       1.481478265139e+01 
       1.714949818793e+00       8.714704293174e+00 
       2.158985553493e+00       5.068388087182e+00 
       2.718001760824e+00       2.920329140774e+00 
       3.421761485999e+00       1.668555427350e+00 
       4.307742487822e+00       9.461179917856e-01 
       5.423126485385e+00       5.327859845782e-01 
       6.827311743825e+00       2.981488396938e-01 
       8.595076248542e+00       1.658915158217e-01 
       1.082055990560e+01       9.181954224229e-02 
