# Matter power spectrum P(k) at redshift z=0.5
# for k=1.78895e-07 to 11.299 h/Mpc,
# number of wavenumbers equal to 140
#    1:k (h/Mpc)              2:P (Mpc/h)^3        
       1.788952824921e-07       1.155066830850e+00 
       2.252158171794e-07       1.439120343292e+00 
       2.835299153851e-07       1.793028166336e+00 
       3.569430154822e-07       2.233968839438e+00 
       4.493646327530e-07       2.783345439867e+00 
       5.657165553343e-07       3.467824477970e+00 
       7.121949473830e-07       4.320630276566e+00 
       8.966003174119e-07       5.383157661368e+00 
       1.128752923813e-06       6.706981240049e+00 
       1.421015739425e-06       8.356358795635e+00 
       1.788952824921e-06       1.041135029840e+01 
       2.252158171794e-06       1.297170391545e+01 
       2.835299153851e-06       1.616169761460e+01 
       3.569430154822e-06       2.013617129972e+01 
       4.493646327530e-06       2.508804215596e+01 
       5.657165553343e-06       3.125766774430e+01 
       7.121949473830e-06       3.894451082377e+01 
       8.966003174119e-06       4.852167114498e+01 
       1.128752923813e-05       6.045398763559e+01 
       1.421015739425e-05       7.532058586240e+01 
       1.788952824921e-05       9.384295767442e+01 
       2.252158171794e-05       1.169199212007e+02 
       2.835299153851e-05       1.456711288660e+02 
       3.569430154822e-05       1.814911776321e+02 
       4.493646327530e-05       2.261168343728e+02 
       5.657165553343e-05       2.817104162362e+02 
       7.121949473830e-05       3.509629351961e+02 
       8.966003174119e-05       4.372211580189e+02 
       1.128752923813e-04       5.446430882678e+02 
       1.421015739425e-04       6.783862261105e+02 
       1.788952824921e-04       8.448317078268e+02 
       2.252158171794e-04       1.051844075259e+03 
       2.835299153851e-04       1.309059579159e+03 
       3.569430154822e-04       1.628184301259e+03 
       4.493646327530e-04       2.023267492616e+03 
       5.657165553343e-04       2.510899770139e+03 
       7.121949473830e-04       3.110272950852e+03 
       8.966003174119e-04       3.842996872626e+03 
       1.128752923813e-03       4.732408011759e+03 
       1.421015739425e-03       5.801899315327e+03 
       1.788952824921e-03       7.071972085093e+03 
       2.252158171794e-03       8.555727523006e+03 
       2.835299153851e-03       1.025248886197e+04 
       3.569430154822e-03       1.213976086275e+04 
       4.493646327530e-03       1.416282162749e+04 
       5.657165553343e-03       1.622366970635e+04 
       7.121949473830e-03       1.817002628246e+04 
       8.966003174119e-03       1.978656810049e+04 
       1.128752923813e-02       2.079442928417e+04 
       1.421015739421e-02       2.087500039248e+04 
       1.788952804226e-02       1.975192738473e+04 
       2.252143851497e-02       1.737263100350e+04 
       2.833465161207e-02       1.416463128186e+04 
       3.512546480419e-02       1.122867290813e+04 
       4.074091495163e-02       9.668568919665e+03 
       4.483448180945e-02       8.919696881780e+03 
       4.822782249865e-02       8.455966630723e+03 
       5.126594224111e-02       8.104418645149e+03 
       5.410404300675e-02       7.793299184445e+03 
       5.682485156917e-02       7.487089901306e+03 
       5.947822202497e-02       7.167564447240e+03 
       6.209702616999e-02       6.826847568157e+03 
       6.470450070764e-02       6.464250112360e+03 
       6.731802509881e-02       6.084369834006e+03 
       6.995122810438e-02       5.695565608380e+03 
       7.261523942835e-02       5.308496607064e+03 
       7.531947225386e-02       4.934668552198e+03 
       7.807213323064e-02       4.585050387775e+03 
       8.088056640789e-02       4.268866263858e+03 
       8.375149183546e-02       3.992656748638e+03 
       8.669117498639e-02       3.759654848528e+03 
       8.970554934130e-02       3.569470223325e+03 
       9.280030639734e-02       3.418049637886e+03 
       9.598096247982e-02       3.297905201890e+03 
       9.925290869533e-02       3.198668721055e+03 
       1.026214484287e-01       3.108091426888e+03 
       1.060918255286e-01       3.013591189623e+03 
       1.096692455002e-01       2.904292832526e+03 
       1.133588914702e-01       2.773228850769e+03 
       1.171659363282e-01       2.619086317706e+03 
       1.210955521998e-01       2.446798633057e+03 
       1.251529182503e-01       2.266534911821e+03 
       1.293432277140e-01       2.091200482208e+03 
       1.336716949751e-01       1.933156737354e+03 
       1.381435634880e-01       1.801147888436e+03 
       1.427641152994e-01       1.698237378642e+03 
       1.475386829136e-01       1.621126069613e+03 
       1.524726642377e-01       1.560940307770e+03 
       1.575715413311e-01       1.505538196662e+03 
       1.628409036836e-01       1.443192836114e+03 
       1.682864767465e-01       1.366764029870e+03 
       1.739141564560e-01       1.276541556106e+03 
       1.797300505146e-01       1.179959161367e+03 
       1.857405272469e-01       1.087943239090e+03 
       1.919522729328e-01       1.009739704787e+03 
       1.983723586466e-01       9.488671181035e+02 
       2.050083178189e-01       9.019420437096e+02 
       2.118682360009e-01       8.607327866233e+02 
       2.189608546714e-01       8.166677153392e+02 
       2.262956914120e-01       7.656844759474e+02 
       2.338831794247e-01       7.103051651591e+02 
       2.417348302200e-01       6.571960680801e+02 
       2.498634244390e-01       6.120142332701e+02 
       2.582832372723e-01       5.755084046280e+02 
       2.670103069376e-01       5.435906575863e+02 
       2.760627573644e-01       5.110999711414e+02 
       2.854611898777e-01       4.761811445933e+02 
       2.952291636741e-01       4.413220315645e+02 
       3.053937918494e-01       4.101102077890e+02 
       3.159864895613e-01       3.833324544524e+02 
       3.270439250142e-01       3.586019601603e+02 
       3.386092445235e-01       3.335915038259e+02 
       3.507336735028e-01       3.087122626943e+02 
       3.634786416167e-01       2.858148345475e+02 
       3.769186523109e-01       2.651501243830e+02 
       3.911452313535e-01       2.453028024458e+02 
       4.062724759263e-01       2.257752517565e+02 
       4.224450405746e-01       2.074025629449e+02 
       4.398499447857e-01       1.902138754351e+02 
       4.587345801536e-01       1.735065914830e+02 
       4.794351738031e-01       1.574339512447e+02 
       5.024236992443e-01       1.420432354522e+02 
       5.283890796341e-01       1.269827528840e+02 
       5.583861266898e-01       1.122720625434e+02 
       5.941279090644e-01       9.765300115452e+01 
       6.386057098982e-01       8.293535939122e+01 
       6.975088288061e-01       6.781275201597e+01 
       7.825738065860e-01       5.201381314811e+01 
       9.175889473913e-01       3.587612247158e+01 
       1.131507230271e+00       2.183251391719e+01 
       1.422488101796e+00       1.257827423938e+01 
       1.790771298495e+00       7.160867064654e+00 
       2.254447374721e+00       4.044832027229e+00 
       2.838181089532e+00       2.268623551166e+00 
       3.573058296886e+00       1.264234955760e+00 
       4.498213887771e+00       7.003915137751e-01 
       5.662915771001e+00       3.859374325075e-01 
       7.129188568963e+00       2.116143543843e-01 
       8.975116654940e+00       1.155023216994e-01 
       1.129900243072e+01       6.277633763678e-02 
