# Matter power spectrum P(k) at redshift z=0
# for k=2.38747e-07 to 11.9779 h/Mpc,
# number of wavenumbers equal to 139
#    1:k (h/Mpc)              2:P (Mpc/h)^3        
       2.387466534564e-07       9.761661482064e-01 
       3.005642290170e-07       1.211528800676e+00 
       3.783879457859e-07       1.503639556674e+00 
       4.763622004664e-07       1.866180906320e+00 
       5.997044793854e-07       2.316134313347e+00 
       7.549832086650e-07       2.874575627695e+00 
       9.504675468663e-07       3.567662278471e+00 
       1.196567747836e-06       4.427858487085e+00 
       1.506389544684e-06       5.495455888251e+00 
       1.896432077863e-06       6.820460782469e+00 
       2.387466534564e-06       8.464936412971e+00 
       3.005642290170e-06       1.050590997001e+01 
       3.783879457859e-06       1.303898046635e+01 
       4.763622004664e-06       1.618279643611e+01 
       5.997044793854e-06       2.008461311498e+01 
       7.549832086650e-06       2.492718924401e+01 
       9.504675468663e-06       3.093734623987e+01 
       1.196567747836e-05       3.839659004045e+01 
       1.506389544684e-05       4.765429197674e+01 
       1.896432077863e-05       5.914404373430e+01 
       2.387466534564e-05       7.340394790831e+01 
       3.005642290170e-05       9.110178558592e+01 
       3.783879457859e-05       1.130662221658e+02 
       4.763622004664e-05       1.403254784727e+02 
       5.997044793854e-05       1.741552106253e+02 
       7.549832086650e-05       2.161377085181e+02 
       9.504675468663e-05       2.682349264027e+02 
       1.196567747836e-04       3.328782628294e+02 
       1.506389544684e-04       4.130783242319e+02 
       1.896432077863e-04       5.125579634523e+02 
       2.387466534564e-04       6.359113641906e+02 
       3.005642290170e-04       7.887903363126e+02 
       3.783879457859e-04       9.781156378770e+02 
       4.763622004664e-04       1.212305563486e+03 
       5.997044793854e-04       1.501506613015e+03 
       7.549832086650e-04       1.857802743364e+03 
       9.504675468663e-04       2.295365380769e+03 
       1.196567747836e-03       2.830459598827e+03 
       1.506389544684e-03       3.481122765256e+03 
       1.896432077863e-03       4.266293531573e+03 
       2.387466534564e-03       5.204201487961e+03 
       3.005642290170e-03       6.309633703948e+03 
       3.783879457859e-03       7.589827820283e+03 
       4.763622004664e-03       9.038885576934e+03 
       5.997044793854e-03       1.058445196951e+04 
       7.549832086650e-03       1.224189632187e+04 
       9.504675468663e-03       1.388421548256e+04 
       1.196567747836e-02       1.536850085062e+04 
       1.506389544684e-02       1.650149750317e+04 
       1.896432077859e-02       1.705054397357e+04 
       2.387466511172e-02       1.678868269378e+04 
       3.005625399815e-02       1.560146783745e+04 
       3.781640022277e-02       1.365652506062e+04 
       4.691937479157e-02       1.160153268172e+04 
       5.451413547745e-02       1.033523526424e+04 
       6.003692917518e-02       9.645462777173e+03 
       6.460406133587e-02       9.175095248714e+03 
       6.868791223391e-02       8.798688102644e+03 
       7.250007628685e-02       8.463393789739e+03 
       7.615296656547e-02       8.142894155090e+03 
       7.971416695164e-02       7.823455338013e+03 
       8.322816009578e-02       7.498681614990e+03 
       8.672634576004e-02       7.167107867116e+03 
       9.023218132092e-02       6.830807401968e+03 
       9.376404347523e-02       6.494352460710e+03 
       9.733692638629e-02       6.163875832015e+03 
       1.009635022688e-01       5.846158718514e+03 
       1.046548119916e-01       5.547753246717e+03 
       1.084207304874e-01       5.274185761881e+03 
       1.122702894381e-01       5.029292848720e+03 
       1.162119062941e-01       4.814732359063e+03 
       1.202535499153e-01       4.629697495401e+03 
       1.244028621605e-01       4.470856768522e+03 
       1.286672481214e-01       4.332551029813e+03 
       1.330539435790e-01       4.207294495481e+03 
       1.375700656373e-01       4.086627171589e+03 
       1.422226507825e-01       3.962314784864e+03 
       1.470186834987e-01       3.827780907317e+03 
       1.519651178245e-01       3.679494254692e+03 
       1.570688937388e-01       3.517904305547e+03 
       1.623369499362e-01       3.347524317845e+03 
       1.677762343338e-01       3.175967808274e+03 
       1.733937135114e-01       3.012099207815e+03 
       1.791963821985e-01       2.863792290969e+03 
       1.851912738631e-01       2.735921211575e+03 
       1.913854734254e-01       2.629102846027e+03 
       1.977861330941e-01       2.539493753454e+03 
       2.044004923113e-01       2.459766795064e+03 
       2.112359027802e-01       2.381222278087e+03 
       2.182998595441e-01       2.296642477038e+03 
       2.256000390934e-01       2.202947131839e+03 
       2.331443454858e-01       2.102362042610e+03 
       2.409409655111e-01       2.001262568330e+03 
       2.489984339905e-01       1.907092676336e+03 
       2.573257104204e-01       1.824900564682e+03 
       2.659322683347e-01       1.755185324982e+03 
       2.748281990122e-01       1.693995372282e+03 
       2.840243315043e-01       1.635217688691e+03 
       2.935323714396e-01       1.574008353550e+03 
       3.033650617082e-01       1.509449307864e+03 
       3.135363689917e-01       1.444608428699e+03 
       3.240617012475e-01       1.383903004965e+03 
       3.349581627647e-01       1.329791869389e+03 
       3.462448554099e-01       1.281265775824e+03 
       3.579432373455e-01       1.235096507850e+03 
       3.700775540822e-01       1.188693693139e+03 
       3.826753615800e-01       1.142087046467e+03 
       3.957681677766e-01       1.097264821526e+03 
       4.093922281889e-01       1.055741470318e+03 
       4.235895443171e-01       1.017038226452e+03 
       4.384091323334e-01       9.795612385339e+02 
       4.539086569035e-01       9.425607919190e+02 
       4.701565656347e-01       9.066643168037e+02 
       4.872349212976e-01       8.725203476742e+02 
       5.052432245329e-01       8.397491644074e+02 
       5.243036716057e-01       8.076638253079e+02 
       5.445685396534e-01       7.762509370460e+02 
       5.662308090317e-01       7.457070715764e+02 
       5.895398586287e-01       7.157359733493e+02 
       6.148253839715e-01       6.860128192106e+02 
       6.425351707869e-01       6.564508424411e+02 
       6.732972861464e-01       6.267425857859e+02 
       7.080276020784e-01       5.964919474932e+02 
       7.481267291358e-01       5.652182045303e+02 
       7.958659582370e-01       5.321503114947e+02 
       8.552041485659e-01       4.961074005459e+02 
       9.336556362297e-01       4.551077559479e+02 
       1.046700142554e+00       4.058164779189e+02 
       1.225818724444e+00       3.438187364400e+02 
       1.510247658972e+00       2.707310353189e+02 
       1.898406336410e+00       2.011651243117e+02 
       2.389899427777e+00       1.430798634187e+02 
       3.008704934771e+00       9.778374265765e+01 
       3.787735098881e+00       6.460912408800e+01 
       4.768475969126e+00       4.155766332886e+01 
       6.003155573062e+00       2.618446778884e+01 
       7.557525101882e+00       1.624468522668e+01 
       9.514360401031e+00       9.963440402569e+00 
       1.197787008583e+01       6.059915864868e+00 
