# Matter power spectrum P(k) at redshift z=1
# for k=2.36906e-07 to 11.89 h/Mpc,
# number of wavenumbers equal to 139
#    1:k (h/Mpc)              2:P (Mpc/h)^3        
       2.369063013197e-07       2.663070751013e-01 
       2.982473629455e-07       3.304248523136e-01 
       3.754711842127e-07       4.099800313906e-01 
       4.726902152018e-07       5.086894188398e-01 
       5.950817238240e-07       6.311647030203e-01 
       7.491635042164e-07       7.831279112764e-01 
       9.431409730468e-07       9.716787423055e-01 
       1.187344137873e-06       1.205626262558e+00 
       1.494777707713e-06       1.495900463769e+00 
       1.881813641223e-06       1.856062909597e+00 
       2.369063013197e-06       2.302940326694e+00 
       2.982473629455e-06       2.857410741888e+00 
       3.754711842127e-06       3.545378889909e+00 
       4.726902152018e-06       4.398986458261e+00 
       5.950817238240e-06       5.458113700812e+00 
       7.491635042164e-06       6.772242556815e+00 
       9.431409730468e-06       8.402768282382e+00 
       1.187344137873e-05       1.042586751466e+01 
       1.494777707713e-05       1.293605662007e+01 
       1.881813641223e-05       1.605060627928e+01 
       2.369063013197e-05       1.991501798425e+01 
       2.982473629455e-05       2.470981718125e+01 
       3.754711842127e-05       3.065897822551e+01 
       4.726902152018e-05       3.804037040901e+01 
       5.950817238240e-05       4.719870457224e+01 
       7.491635042164e-05       5.856156842434e+01 
       9.431409730468e-05       7.265926697992e+01 
       1.187344137873e-04       9.014933112961e+01 
       1.494777707713e-04       1.118467149750e+02 
       1.881813641223e-04       1.387608525396e+02 
       2.369063013197e-04       1.721408458507e+02 
       2.982473629455e-04       2.135300319148e+02 
       3.754711842127e-04       2.648308952716e+02 
       4.726902152018e-04       3.283805740046e+02 
       5.950817238240e-04       4.070358817358e+02 
       7.491635042164e-04       5.042648536950e+02 
       9.431409730468e-04       6.242395679832e+02 
       1.187344137873e-03       7.719214940451e+02 
       1.494777707713e-03       9.531193355600e+02 
       1.881813641223e-03       1.174466752203e+03 
       2.369063013197e-03       1.443244039107e+03 
       2.982473629455e-03       1.767009777007e+03 
       3.754711842127e-03       2.152831643733e+03 
       4.726902152018e-03       2.599127890585e+03 
       5.950817238240e-03       3.117817544913e+03 
       7.491635042164e-03       3.698738626221e+03 
       9.431409730468e-03       4.325208147868e+03 
       1.187344137873e-02       4.964026841314e+03 
       1.494777707713e-02       5.559759696905e+03 
       1.881813640978e-02       6.032071991981e+03 
       2.369062490501e-02       6.284424533839e+03 
       2.982306136833e-02       6.237633989069e+03 
       3.743283544981e-02       5.898812551168e+03 
       4.534573077308e-02       5.475482638269e+03 
       5.112789455035e-02       5.199389889751e+03 
       5.559613900619e-02       5.013379031378e+03 
       5.944898699201e-02       4.867648518111e+03 
       6.297246477969e-02       4.740974480231e+03 
       6.630583543304e-02       4.622487002258e+03 
       6.952777658639e-02       4.505867550621e+03 
       7.268773881818e-02       4.387302685730e+03 
       7.581939112635e-02       4.264651535969e+03 
       7.894715423535e-02       4.137058521501e+03 
       8.208968876501e-02       4.004732997156e+03 
       8.526189805124e-02       3.868776036104e+03 
       8.847614627634e-02       3.730999961934e+03 
       9.174303463719e-02       3.593716455687e+03 
       9.507191513640e-02       3.459488784262e+03 
       9.847124157952e-02       3.330856313199e+03 
       1.019488156809e-01       3.210049842560e+03 
       1.055119633342e-01       3.098720070520e+03 
       1.091676630270e-01       2.997705534532e+03 
       1.129226406197e-01       2.906866723928e+03 
       1.167834399467e-01       2.825015274575e+03 
       1.207564757150e-01       2.749967702608e+03 
       1.248480732448e-01       2.678752089358e+03 
       1.290644983462e-01       2.607984536891e+03 
       1.334119797915e-01       2.534401631044e+03 
       1.378967262908e-01       2.455486144661e+03 
       1.425249395105e-01       2.370061371984e+03 
       1.473028244292e-01       2.278685159911e+03 
       1.522365981681e-01       2.183678863879e+03 
       1.573324983289e-01       2.088704630768e+03 
       1.625967918067e-01       1.997938670295e+03 
       1.680357850088e-01       1.915026766943e+03 
       1.736558363795e-01       1.842093205729e+03 
       1.794633721198e-01       1.779078171309e+03 
       1.854649059759e-01       1.723626020164e+03 
       1.916670639666e-01       1.671657642866e+03 
       1.980766149154e-01       1.618609097544e+03 
       2.047005076634e-01       1.561054674840e+03 
       2.115459158589e-01       1.498114035751e+03 
       2.186202912660e-01       1.431914482676e+03 
       2.259314266095e-01       1.366702045953e+03 
       2.334875290964e-01       1.306896925565e+03 
       2.412973059356e-01       1.255006296045e+03 
       2.493700634397e-01       1.210420972069e+03 
       2.577158216528e-01       1.169744008725e+03 
       2.663454469430e-01       1.128644931078e+03 
       2.752708056579e-01       1.084394079457e+03 
       2.845049428176e-01       1.037521244919e+03 
       2.940622909789e-01       9.912887085667e+02 
       3.039589159382e-01       9.492036491906e+02 
       3.142128079757e-01       9.124079736907e+02 
       3.248442300645e-01       8.789504390883e+02 
       3.358761381384e-01       8.455653616718e+02 
       3.473346935162e-01       8.105700071216e+02 
       3.592498944900e-01       7.752262499850e+02 
       3.716563637584e-01       7.421097728468e+02 
       3.845943421363e-01       7.122010896047e+02 
       3.981109588391e-01       6.839515970876e+02 
       4.122618778563e-01       6.553914771467e+02 
       4.271134637393e-01       6.266056771267e+02 
       4.427456772108e-01       5.991859759864e+02 
       4.592560161440e-01       5.735432938682e+02 
       4.767649865224e-01       5.483915226015e+02 
       4.954238677092e-01       5.231438882745e+02 
       5.154260141799e-01       4.986496288746e+02 
       5.370237819462e-01       4.749625627195e+02 
       5.605547281467e-01       4.512494863489e+02 
       5.864837452888e-01       4.276800797361e+02 
       6.154739233596e-01       4.042087945408e+02 
       6.485121757131e-01       3.802949657641e+02 
       6.871462227870e-01       3.557882627308e+02 
       7.339651374240e-01       3.300279306444e+02 
       7.936541794995e-01       3.022276834591e+02 
       8.754707841149e-01       2.710549715898e+02 
       9.988298818574e-01       2.346542177732e+02 
       1.198779554072e+00       1.924270485503e+02 
       1.497266327945e+00       1.502181098293e+02 
       1.884444124667e+00       1.139662979361e+02 
       2.372370106197e+00       8.349948945530e+01 
       2.986637006059e+00       5.859808257259e+01 
       3.759953222732e+00       3.941513259102e+01 
       4.733500659254e+00       2.558419558766e+01 
       5.959124266680e+00       1.615452936709e+01 
       7.502092971362e+00       9.993128111285e+00 
       9.444575483290e+00       6.090330259473e+00 
       1.189001607952e+01       3.672456516465e+00 
