# Matter power spectrum P(k) at redshift z=0
# for k=2.32979e-07 to 11.6885 h/Mpc,
# number of wavenumbers equal to 139
#    1:k (h/Mpc)              2:P (Mpc/h)^3        
       2.329794069244e-07       7.026903029456e-01 
       2.933036958019e-07       8.758585222761e-01 
       3.692474760181e-07       1.091701632346e+00 
       4.648550308000e-07       1.360736264093e+00 
       5.852178110745e-07       1.696070724790e+00 
       7.367455737963e-07       2.114043680243e+00 
       9.275077248790e-07       2.635020230595e+00 
       1.167663044486e-06       3.284384167108e+00 
       1.470000679116e-06       4.093774754906e+00 
       1.850621210294e-06       5.102628300354e+00 
       2.329794069244e-06       6.360099608989e+00 
       2.933036958019e-06       7.927456946439e+00 
       3.692474760181e-06       9.881067177684e+00 
       4.648550308000e-06       1.231611649846e+01 
       5.852178110745e-06       1.535124798489e+01 
       7.367455737963e-06       1.913434179531e+01 
       9.275077248790e-06       2.384971941449e+01 
       1.167663044486e-05       2.972712247586e+01 
       1.470000679116e-05       3.705290269334e+01 
       1.850621210294e-05       4.618396625368e+01 
       2.329794069244e-05       5.756514838889e+01 
       2.933036958019e-05       7.175085740123e+01 
       3.692474760181e-05       8.943202833845e+01 
       4.648550308000e-05       1.114696712678e+02 
       5.852178110745e-05       1.389365929221e+02 
       7.367455737963e-05       1.731692148919e+02 
       9.275077248790e-05       2.158317980928e+02 
       1.167663044486e-04       2.689957833628e+02 
       1.470000679116e-04       3.352373015058e+02 
       1.850621210294e-04       4.177560483121e+02 
       2.329794069244e-04       5.205183918809e+02 
       2.933036958019e-04       6.484263413909e+02 
       3.692474760181e-04       8.075112741902e+02 
       4.648550308000e-04       1.005146624912e+03 
       5.852178110745e-04       1.250267319378e+03 
       7.367455737963e-04       1.553576346585e+03 
       9.275077248790e-04       1.927706243295e+03 
       1.167663044486e-03       2.387262986538e+03 
       1.470000679116e-03       2.948593386476e+03 
       1.850621210294e-03       3.629077474513e+03 
       2.329794069244e-03       4.445766823325e+03 
       2.933036958019e-03       5.413018129018e+03 
       3.692474760181e-03       6.538874899658e+03 
       4.648550308000e-03       7.820084916621e+03 
       5.852178110745e-03       9.200968735221e+03 
       7.367455737963e-03       1.068687399977e+04 
       9.275077248790e-03       1.217047489769e+04 
       1.167663044486e-02       1.352355087495e+04 
       1.470000679116e-02       1.456921734263e+04 
       1.850621210290e-02       1.509030707793e+04 
       2.329794046025e-02       1.487044782600e+04 
       2.933020265328e-02       1.379583700188e+04 
       3.690269384494e-02       1.202000770089e+04 
       4.578183327775e-02       1.015144554556e+04 
       5.318304567604e-02       9.016980361199e+03 
       5.856642354581e-02       8.409954705848e+03 
       6.301936293911e-02       8.002157046193e+03 
       6.700162465243e-02       7.678734832174e+03 
       7.071924061426e-02       7.391179762603e+03 
       7.428170589425e-02       7.115205402784e+03 
       7.775486604058e-02       6.838046444925e+03 
       8.118206749238e-02       6.553703716857e+03 
       8.459391241862e-02       6.260775086293e+03 
       8.801326509332e-02       5.961204608936e+03 
       9.145803939775e-02       5.659342444857e+03 
       9.494285315269e-02       5.361084024557e+03 
       9.848006144959e-02       5.073020298905e+03 
       1.020804295663e-01       4.801608675442e+03 
       1.057535864898e-01       4.552411634975e+03 
       1.095083393790e-01       4.329454767762e+03 
       1.133528967588e-01       4.134746793253e+03 
       1.172950299550e-01       3.967987200746e+03 
       1.213421915986e-01       3.826478873694e+03 
       1.255016035732e-01       3.705269896721e+03 
       1.297803227623e-01       3.597565920253e+03 
       1.341852904006e-01       3.495463004034e+03 
       1.387233691692e-01       3.391017339987e+03 
       1.434013710864e-01       3.277572757739e+03 
       1.482260785191e-01       3.151116297741e+03 
       1.532042601539e-01       3.011291244247e+03 
       1.583426834506e-01       2.861665974675e+03 
       1.636481248863e-01       2.709016354976e+03 
       1.691273791611e-01       2.561703550682e+03 
       1.747872684527e-01       2.427570718107e+03 
       1.806346527472e-01       2.311952143137e+03 
       1.866764422448e-01       2.216317015271e+03 
       1.929196128143e-01       2.137861928170e+03 
       1.993712254554e-01       2.070189103052e+03 
       2.060384507216e-01       2.005078205590e+03 
       2.129285990475e-01       1.935098592866e+03 
       2.200491579312e-01       1.856299528573e+03 
       2.274078369373e-01       1.769758603772e+03 
       2.350126215202e-01       1.680981449210e+03 
       2.428718367377e-01       1.597234533637e+03 
       2.509942220295e-01       1.524129944670e+03 
       2.593890184050e-01       1.463162807464e+03 
       2.680660696259e-01       1.411294384594e+03 
       2.770359393114e-01       1.362736220744e+03 
       2.863100463627e-01       1.312177802785e+03 
       2.959008217356e-01       1.257769980267e+03 
       3.058218904314e-01       1.201877444140e+03 
       3.160882836902e-01       1.148948409591e+03 
       3.267166878466e-01       1.102115056067e+03 
       3.377257382576e-01       1.061105302335e+03 
       3.491363693134e-01       1.022893779007e+03 
       3.609722350360e-01       9.844348141770e+02 
       3.732602195067e-01       9.451486963180e+02 
       3.860310628664e-01       9.069004698794e+02 
       3.993201376819e-01       8.716383881255e+02 
       4.131684232375e-01       8.393268850822e+02 
       4.276237436226e-01       8.083271470014e+02 
       4.427423621944e-01       7.775103123453e+02 
       4.585910646816e-01       7.473690560920e+02 
       4.752499233783e-01       7.188198017341e+02 
       4.928160281912e-01       6.916898807017e+02 
       5.114086185591e-01       6.651546445013e+02 
       5.311762923245e-01       6.390734296918e+02 
       5.523073750010e-01       6.137897475296e+02 
       5.750452421710e-01       5.891038053152e+02 
       5.997116711045e-01       5.646176627119e+02 
       6.267437229743e-01       5.403070091275e+02 
       6.567544728336e-01       5.159555652268e+02 
       6.906380199437e-01       4.911969944140e+02 
       7.297618461517e-01       4.656778234618e+02 
       7.763438553265e-01       4.387681980247e+02 
       8.342505669887e-01       4.095389549193e+02 
       9.108225690743e-01       3.764251155838e+02 
       1.021183852842e+00       3.368168746474e+02 
       1.196081739009e+00       2.873090976891e+02 
       1.473746556008e+00       2.292500862187e+02 
       1.852546482171e+00       1.737739803596e+02 
       2.332167155924e+00       1.265245079719e+02 
       2.936024318015e+00       8.849656056986e+01 
       3.696235623506e+00       5.968594419054e+01 
       4.653284954410e+00       3.904985276804e+01 
       5.858138677427e+00       2.493652784251e+01 
       7.374959646827e+00       1.562786348251e+01 
       9.284524110347e+00       9.655682975739e+00 
       1.168852333893e+01       5.902647294204e+00 
