# Matter power spectrum P(k) at redshift z=0
# for k=1.7991e-07 to 11.3631 h/Mpc,
# number of wavenumbers equal to 140
#    1:k (h/Mpc)              2:P (Mpc/h)^3        
       1.799099042695e-07       2.014020487365e+00 
       2.264931503184e-07       2.501001105614e+00 
       2.851379825331e-07       3.105731330301e+00 
       3.589674520786e-07       3.856682457285e+00 
       4.519132474288e-07       4.789210005305e+00 
       5.689250711146e-07       5.947218286686e+00 
       7.162342294329e-07       7.385227462377e+00 
       9.016854722299e-07       9.170940397552e+00 
       1.135154754436e-06       1.138843016496e+01 
       1.429075166678e-06       1.414209825909e+01 
       1.799099042695e-06       1.756158986651e+01 
       2.264931503184e-06       2.180789757589e+01 
       2.851379825331e-06       2.708094084984e+01 
       3.589674520786e-06       3.362897799864e+01 
       4.519132474288e-06       4.176029357358e+01 
       5.689250711146e-06       5.185771103429e+01 
       7.162342294329e-06       6.439661315459e+01 
       9.016854722299e-06       7.996731702184e+01 
       1.135154754436e-05       9.930285396544e+01 
       1.429075166678e-05       1.233134562579e+02 
       1.799099042695e-05       1.531293622604e+02 
       2.264931503184e-05       1.901539318286e+02 
       2.851379825331e-05       2.361295264288e+02 
       3.589674520786e-05       2.932191648475e+02 
       4.519132474288e-05       3.641076207001e+02 
       5.689250711146e-05       4.521263727085e+02 
       7.162342294329e-05       5.614076092345e+02 
       9.016854722299e-05       6.970732146641e+02 
       1.135154754436e-04       8.654650836719e+02 
       1.429075166678e-04       1.074422745662e+03 
       1.799099042695e-04       1.333612283594e+03 
       2.264931503184e-04       1.654905552475e+03 
       2.851379825331e-04       2.052799050816e+03 
       3.589674520786e-04       2.544846396365e+03 
       4.519132474288e-04       3.152058868114e+03 
       5.689250711146e-04       3.899209270864e+03 
       7.162342294329e-04       4.814945666955e+03 
       9.016854722299e-04       5.931516661364e+03 
       1.135154754436e-03       7.283667153777e+03 
       1.429075166678e-03       8.906167897223e+03 
       1.799099042695e-03       1.082959520426e+04 
       2.264931503184e-03       1.307363186779e+04 
       2.851379825331e-03       1.563770296908e+04 
       3.589674520786e-03       1.848899705940e+04 
       4.519132474288e-03       2.149454890638e+04 
       5.689250711146e-03       2.459078115139e+04 
       7.162342294329e-03       2.751328853011e+04 
       9.016854722299e-03       2.993792103796e+04 
       1.135154754436e-02       3.144409967001e+04 
       1.429075166673e-02       3.155169825254e+04 
       1.799099015328e-02       2.984755247504e+04 
       2.264913852207e-02       2.626227648235e+04 
       2.849245133939e-02       2.145460196988e+04 
       3.526854101884e-02       1.709862705872e+04 
       4.079145468899e-02       1.480138718706e+04 
       4.483515709850e-02       1.367768227519e+04 
       4.820030050660e-02       1.297154889415e+04 
       5.121943141356e-02       1.243307691082e+04 
       5.404321641251e-02       1.195765848813e+04 
       5.675240340320e-02       1.149326108629e+04 
       5.939584430404e-02       1.101302697122e+04 
       6.200584519251e-02       1.050512675901e+04 
       6.460529645211e-02       9.968110026886e+03 
       6.721135175227e-02       9.408132368987e+03 
       6.983748497809e-02       8.836759271163e+03 
       7.249471500451e-02       8.268887271553e+03 
       7.519237275714e-02       7.720682509458e+03 
       7.793860182370e-02       7.207616825912e+03 
       8.074069645974e-02       6.742743207544e+03 
       8.360533630472e-02       6.335345006486e+03 
       8.653875317784e-02       5.990031181263e+03 
       8.954685183768e-02       5.706277044899e+03 
       9.263529869402e-02       5.478372348601e+03 
       9.580958767883e-02       5.295763428179e+03 
       9.907508950635e-02       5.143857375691e+03 
       1.024370886532e-01       5.005437242954e+03 
       1.059008111561e-01       4.862814955523e+03 
       1.094714455131e-01       4.700649307420e+03 
       1.131541584320e-01       4.508986876800e+03 
       1.169541068140e-01       4.285699291900e+03 
       1.208764471175e-01       4.037352068420e+03 
       1.249263430936e-01       3.777864690938e+03 
       1.291089727802e-01       3.525084119105e+03 
       1.334295355793e-01       3.296231830784e+03 
       1.378932602005e-01       3.103602678647e+03 
       1.425054142279e-01       2.951659605177e+03 
       1.472713160528e-01       2.836063069775e+03 
       1.521963499037e-01       2.744742913025e+03 
       1.572859846962e-01       2.661038643872e+03 
       1.625457974248e-01       2.568706380531e+03 
       1.679815018201e-01       2.457632895227e+03 
       1.735989830072e-01       2.327824614058e+03 
       1.794043389315e-01       2.189164635770e+03 
       1.854039293688e-01       2.056508471167e+03 
       1.916044334219e-01       1.942599418488e+03 
       1.980129165374e-01       1.852474520554e+03 
       2.046369082618e-01       1.781784598237e+03 
       2.114844922258e-01       1.719488959764e+03 
       2.185644102065e-01       1.653880158316e+03 
       2.258861826071e-01       1.579172487809e+03 
       2.334602483462e-01       1.498474010644e+03 
       2.412981280137e-01       1.420651062110e+03 
       2.494126152872e-01       1.353404147784e+03 
       2.578180031190e-01       1.297937685872e+03 
       2.665303532185e-01       1.248923495129e+03 
       2.755678200599e-01       1.199423318624e+03 
       2.849510443244e-01       1.146762040889e+03 
       2.947036357332e-01       1.094074474228e+03 
       3.048527722585e-01       1.046108792182e+03 
       3.154299526308e-01       1.004016439802e+03 
       3.264719533133e-01       9.647247965839e+02 
       3.380220619307e-01       9.251048558424e+02 
       3.501316901012e-01       8.855598779747e+02 
       3.628625156332e-01       8.484552388008e+02 
       3.762893770407e-01       8.141569630209e+02 
       3.905042594723e-01       7.808319353574e+02 
       4.056219010987e-01       7.477452805745e+02 
       4.217878692626e-01       7.158849180797e+02 
       4.391905145092e-01       6.852579081667e+02 
       4.580792241124e-01       6.548994161967e+02 
       4.787933172292e-01       6.248679859818e+02 
       5.018097490830e-01       5.950849952505e+02 
       5.278258545714e-01       5.649111811046e+02 
       5.579114744965e-01       5.340549381183e+02 
       5.938084092455e-01       5.017277572081e+02 
       6.385673296264e-01       4.669050681776e+02 
       6.980101074555e-01       4.278337457465e+02 
       7.841737356450e-01       3.817182718901e+02 
       9.213071193092e-01       3.253730625305e+02 
       1.137726359022e+00       2.618932554877e+02 
       1.430557860779e+00       2.034976412697e+02 
       1.800936500720e+00       1.542062986181e+02 
       2.267244633025e+00       1.135539791269e+02 
       2.854291883228e+00       8.105278334597e+01 
       3.593340584474e+00       5.609692451539e+01 
       4.523747775026e+00       3.774175333965e+01 
       5.695061030527e+00       2.477209946179e+01 
       7.169657053049e+00       1.592303757772e+01 
       9.026063457933e+00       1.006078692150e+01 
       1.136314065566e+01       6.269824037001e+00 
