# Matter power spectrum P(k) at redshift z=0.5
# for k=1.94307e-07 to 12.2765 h/Mpc,
# number of wavenumbers equal to 140
#    1:k (h/Mpc)              2:P (Mpc/h)^3        
       1.943071938146e-07       9.107622267464e-01 
       2.446182639876e-07       1.135677469175e+00 
       3.079561487230e-07       1.416136149972e+00 
       3.876938213457e-07       1.765854873478e+00 
       4.880776036877e-07       2.201937596410e+00 
       6.144532982100e-07       2.745712142872e+00 
       7.735508714773e-07       3.423773298333e+00 
       9.738428494183e-07       4.269283496800e+00 
       1.225995510227e-06       5.323594712625e+00 
       1.543436902570e-06       6.638270876666e+00 
       1.943071938146e-06       8.277609719987e+00 
       2.446182639877e-06       1.032178736608e+01 
       3.079561487230e-06       1.287077943932e+01 
       3.876938213457e-06       1.604925039696e+01 
       4.880776036877e-06       2.001265008776e+01 
       6.144532982100e-06       2.495481547518e+01 
       7.735508714773e-06       3.111744882045e+01 
       9.738428494183e-06       3.880193495467e+01 
       1.225995510227e-05       4.838407374442e+01 
       1.543436902570e-05       6.033244461170e+01 
       1.943071938146e-05       7.523129404000e+01 
       2.446182639877e-05       9.380905119046e+01 
       3.079561487230e-05       1.169738380178e+02 
       3.876938213457e-05       1.458576550217e+02 
       4.880776036877e-05       1.818712939749e+02 
       6.144532982100e-05       2.267724476349e+02 
       7.735508714773e-05       2.827499240544e+02 
       9.738428494183e-05       3.525272567915e+02 
       1.225995510227e-04       4.394891712311e+02 
       1.543436902570e-04       5.478340034184e+02 
       1.943071938146e-04       6.827536855718e+02 
       2.446182639877e-04       8.506393441875e+02 
       3.079561487230e-04       1.059303570674e+03 
       3.876938213457e-04       1.318198884403e+03 
       4.880776036877e-04       1.638596643023e+03 
       6.144532982100e-04       2.033676820110e+03 
       7.735508714773e-04       2.518471095314e+03 
       9.738428494183e-04       3.109570705770e+03 
       1.225995510227e-03       3.824366073877e+03 
       1.543436902570e-03       4.679396368765e+03 
       1.943071938146e-03       5.687594545177e+03 
       2.446182639877e-03       6.854297765027e+03 
       3.079561487230e-03       8.171916466951e+03 
       3.876938213457e-03       9.613797829162e+03 
       4.880776036877e-03       1.112690126104e+04 
       6.144532982100e-03       1.260957808007e+04 
       7.735508714773e-03       1.396205469157e+04 
       9.738428494183e-03       1.500759970904e+04 
       1.225995510227e-02       1.554301635401e+04 
       1.543436902570e-02       1.534714162314e+04 
       1.943071936728e-02       1.423779652679e+04 
       2.446180667082e-02       1.219595514907e+04 
       3.079115090872e-02       9.543503026011e+03 
       3.854157927516e-02       7.045214001539e+03 
       4.598189451553e-02       5.616868240791e+03 
       5.131069410327e-02       5.041296370233e+03 
       5.554601284659e-02       4.747045471322e+03 
       5.925449861665e-02       4.550930806039e+03 
       6.267498704036e-02       4.386397044235e+03 
       6.592792243566e-02       4.222963995252e+03 
       6.908307710077e-02       4.045689302769e+03 
       7.218511927888e-02       3.848377798379e+03 
       7.526489968248e-02       3.630714225787e+03 
       7.834505642957e-02       3.396621193414e+03 
       8.144305774311e-02       3.152962923480e+03 
       8.457297195085e-02       2.908311455376e+03 
       8.774655535251e-02       2.671738389038e+03 
       9.097395134114e-02       2.451703337273e+03 
       9.426415646788e-02       2.255142954545e+03 
       9.762534069737e-02       2.086839398257e+03 
       1.010650730378e-01       1.949087346803e+03 
       1.045904837732e-01       1.841613376771e+03 
       1.082083830091e-01       1.761664528566e+03 
       1.119253483623e-01       1.704204652315e+03 
       1.157477903788e-01       1.662235111613e+03 
       1.196820015863e-01       1.627348135996e+03 
       1.237341933564e-01       1.590654012015e+03 
       1.279105236174e-01       1.544129306548e+03 
       1.322171177076e-01       1.482207004818e+03 
       1.366600841586e-01       1.403165540210e+03 
       1.412455268648e-01       1.309744907610e+03 
       1.459795548766e-01       1.208577716089e+03 
       1.508682909096e-01       1.108468148871e+03 
       1.559178795708e-01       1.018060945464e+03 
       1.611344962472e-01       9.436887542158e+02 
       1.665243575623e-01       8.880004611622e+02 
       1.720937342859e-01       8.495402234851e+02 
       1.778489675686e-01       8.231707981118e+02 
       1.837964893590e-01       8.013080630596e+02 
       1.899428478582e-01       7.760374964387e+02 
       1.962947388679e-01       7.418142835740e+02 
       2.028590438929e-01       6.976717506165e+02 
       2.096428758908e-01       6.475484220793e+02 
       2.166536336066e-01       5.982439604511e+02 
       2.238990655146e-01       5.560876933429e+02 
       2.313873445234e-01       5.241647130578e+02 
       2.391271547893e-01       5.013005700777e+02 
       2.471277922624e-01       4.829658326756e+02 
       2.553992809686e-01       4.637153811655e+02 
       2.639525075483e-01       4.402126917452e+02 
       2.727993772592e-01       4.130513321830e+02 
       2.819529955689e-01       3.858854565506e+02 
       2.914278806696e-01       3.624850162147e+02 
       3.012402138470e-01       3.440844611203e+02 
       3.114081367645e-01       3.288840812676e+02 
       3.219521075693e-01       3.138255054783e+02 
       3.328953315765e-01       2.972147581866e+02 
       3.442642875495e-01       2.799269414034e+02 
       3.560893778796e-01       2.640521127461e+02 
       3.684057411976e-01       2.505496509770e+02 
       3.812542805387e-01       2.384600517356e+02 
       3.946829813402e-01       2.263213490477e+02 
       4.087486247786e-01       2.139359358175e+02 
       4.235190489840e-01       2.022429191969e+02 
       4.390761830204e-01       1.916966409921e+02 
       4.555201924880e-01       1.816922562668e+02 
       4.729752599214e-01       1.717392554962e+02 
       4.915978300376e-01       1.621551619966e+02 
       5.115886778685e-01       1.531400525575e+02 
       5.332111002329e-01       1.443508583192e+02 
       5.568192848149e-01       1.357189641839e+02 
       5.829043331779e-01       1.273423517827e+02 
       6.121724606561e-01       1.190268239310e+02 
       6.456853175595e-01       1.107202785230e+02 
       6.851284791078e-01       1.022833200025e+02 
       7.333647456130e-01       9.353547106695e+01 
       7.956685440405e-01       8.419396210525e+01 
       8.826433515700e-01       7.383985982560e+01 
       1.016473365117e+00       6.199120949075e+01 
       1.233276663779e+00       4.898164960283e+01 
       1.545684785311e+00       3.721019465665e+01 
       1.945690521890e+00       2.793227011638e+01 
       2.449477899472e+00       2.068876800935e+01 
       3.083709971926e+00       1.503876952688e+01 
       3.882160846261e+00       1.068221970292e+01 
       4.887350942030e+00       7.391239469902e+00 
       6.152810297277e+00       4.972842580107e+00 
       7.745929237191e+00       3.253554335657e+00 
       9.751547154660e+00       2.074463586739e+00 
       1.227647051731e+01       1.293457039528e+00 
