# Matter power spectrum P(k) at redshift z=0
# for k=2.35834e-07 to 11.8318 h/Mpc,
# number of wavenumbers equal to 139
#    1:k (h/Mpc)              2:P (Mpc/h)^3        
       2.358337711875e-07       7.561651395972e-01 
       2.968971275072e-07       9.413402994895e-01 
       3.737713385075e-07       1.171862484416e+00 
       4.705502362474e-07       1.458836599678e+00 
       5.923876499376e-07       1.816086999115e+00 
       7.457718661395e-07       2.260823442780e+00 
       9.388711536842e-07       2.814470138639e+00 
       1.181968753774e-06       3.503697804763e+00 
       1.488010500072e-06       4.361708468690e+00 
       1.873294231557e-06       5.429834893955e+00 
       2.358337711875e-06       6.759531677932e+00 
       2.968971275072e-06       8.414853929394e+00 
       3.737713385075e-06       1.047554291337e+01 
       4.705502362474e-06       1.304086727439e+01 
       5.923876499376e-06       1.623440481135e+01 
       7.457718661395e-06       2.020999502611e+01 
       9.388711536842e-06       2.515914893433e+01 
       1.181968753774e-05       3.132027257359e+01 
       1.488010500072e-05       3.899014752147e+01 
       1.873294231557e-05       4.853821945897e+01 
       2.358337711875e-05       6.042437915798e+01 
       2.968971275072e-05       7.522108465756e+01 
       3.737713385075e-05       9.364087496808e+01 
       4.705502362474e-05       1.165705704903e+02 
       5.923876499376e-05       1.451137482317e+02 
       7.457718661395e-05       1.806434212595e+02 
       9.388711536842e-05       2.248672316850e+02 
       1.181968753774e-04       2.799078526040e+02 
       1.488010500072e-04       3.484016114264e+02 
       1.873294231557e-04       4.336184399845e+02 
       2.358337711875e-04       5.396058415608e+02 
       2.968971275072e-04       6.713581801069e+02 
       3.737713385075e-04       8.350096386996e+02 
       4.705502362474e-04       1.038044200220e+03 
       5.923876499376e-04       1.289509277701e+03 
       7.457718661395e-04       1.600212032363e+03 
       9.388711536842e-04       1.982864461983e+03 
       1.181968753774e-03       2.452101305373e+03 
       1.488010500072e-03       3.024205058662e+03 
       1.873294231557e-03       3.716335725077e+03 
       2.358337711875e-03       4.545091437671e+03 
       2.968971275072e-03       5.524052265409e+03 
       3.737713385075e-03       6.660080610862e+03 
       4.705502362474e-03       7.948279404712e+03 
       5.923876499376e-03       9.365337181940e+03 
       7.457718661395e-03       1.086151413180e+04 
       9.388711536842e-03       1.235224354403e+04 
       1.181968753774e-02       1.371011827824e+04 
       1.488010500072e-02       1.476099036369e+04 
       1.873294231554e-02       1.529247052610e+04 
       2.358337690978e-02       1.509339033164e+04 
       2.968955792626e-02       1.405078996045e+04 
       3.735617193060e-02       1.230686849828e+04 
       4.637119124615e-02       1.044092958008e+04 
       5.393351901545e-02       9.276659099082e+03 
       5.942489769055e-02       8.638585796623e+03 
       6.395943420560e-02       8.200084981145e+03 
       6.801101185851e-02       7.846284065367e+03 
       7.179135277721e-02       7.529128727247e+03 
       7.541271299256e-02       7.224943990426e+03 
       7.894248538378e-02       6.921586581910e+03 
       8.242497908515e-02       6.613589816310e+03 
       8.589144463389e-02       6.299914240812e+03 
       8.936521143554e-02       5.982638688779e+03 
       9.286454497164e-02       5.665991891599e+03 
       9.640434095670e-02       5.355497563968e+03 
       9.999718276479e-02       5.057162793960e+03 
       1.036540296201e-01       4.776710688238e+03 
       1.073846801822e-01       4.518891548743e+03 
       1.111980938538e-01       4.286913076183e+03 
       1.151026187562e-01       4.082025815290e+03 
       1.191061565772e-01       3.903292539091e+03 
       1.232162835571e-01       3.747567676493e+03 
       1.274403402642e-01       3.609717710913e+03 
       1.317854987025e-01       3.483120020211e+03 
       1.362588126826e-01       3.360461235747e+03 
       1.408672556824e-01       3.234803962841e+03 
       1.456177493141e-01       3.100792977733e+03 
       1.505171847669e-01       2.955756478770e+03 
       1.555724391033e-01       2.800383438427e+03 
       1.607903879578e-01       2.638690543349e+03 
       1.661779159713e-01       2.477161890201e+03 
       1.717419261518e-01       2.323205350252e+03 
       1.774893492680e-01       2.183309798250e+03 
       1.834271543197e-01       2.061393220876e+03 
       1.895623611008e-01       1.957775628730e+03 
       1.959020558427e-01       1.869059999160e+03 
       2.024534109163e-01       1.789037489765e+03 
       2.092237095562e-01       1.710529017500e+03 
       2.162203765701e-01       1.627749120354e+03 
       2.234510159968e-01       1.538379536813e+03 
       2.309234566934e-01       1.444378665839e+03 
       2.386458068682e-01       1.350968258623e+03 
       2.466265186434e-01       1.264152184936e+03 
       2.548744638391e-01       1.187943736274e+03 
       2.633990223427e-01       1.122632795353e+03 
       2.722101846667e-01       1.064897762228e+03 
       2.813186706516e-01       1.009727141916e+03 
       2.907360667352e-01       9.532231969085e+02 
       3.004749848577e-01       8.946946493929e+02 
       3.105492469164e-01       8.366447183315e+02 
       3.209740998153e-01       7.826374590443e+02 
       3.317664676430e-01       7.346295601992e+02 
       3.429452494890e-01       6.917382597414e+02 
       3.545316740354e-01       6.512711278974e+02 
       3.665497255958e-01       6.110828385756e+02 
       3.790266610601e-01       5.712001469910e+02 
       3.919936437788e-01       5.332733483582e+02 
       4.054865295608e-01       4.985578914469e+02 
       4.195468528618e-01       4.666275766209e+02 
       4.342230797302e-01       4.361057784765e+02 
       4.495722210481e-01       4.063439430894e+02 
       4.656619396649e-01       3.778962669221e+02 
       4.825733457522e-01       3.513443489778e+02 
       5.004047688297e-01       3.263553102552e+02 
       5.192769444019e-01       3.023184704829e+02 
       5.393402970961e-01       2.792534064134e+02 
       5.607854125298e-01       2.573916515742e+02 
       5.838585042032e-01       2.365023295171e+02 
       6.088849728434e-01       2.163448853982e+02 
       6.363065938282e-01       1.969530507721e+02 
       6.667427056465e-01       1.781747959217e+02 
       7.010959233280e-01       1.598393894973e+02 
       7.407455912452e-01       1.418128742499e+02 
       7.879265265945e-01       1.238593847379e+02 
       8.465297941477e-01       1.057011350483e+02 
       9.239320496529e-01       8.695951135756e+01 
       1.035316302078e+00       6.726235405594e+01 
       1.211619590206e+00       4.693490823364e+01 
       1.491938839449e+00       2.890828735914e+01 
       1.875253818103e+00       1.680428007141e+01 
       2.360749101024e+00       9.639596302893e+00 
       2.972006832026e+00       5.481752628013e+00 
       3.741534924760e+00       3.093054487950e+00 
       4.710313395896e+00       1.732929120069e+00 
       5.929933231608e+00       9.646681942862e-01 
       7.465343635514e+00       5.338570277230e-01 
       9.398310810524e+00       2.938582359158e-01 
       1.183177230731e+01       1.609558001531e-01 
