# Matter power spectrum P(k) at redshift z=1.5
# for k=1.95701e-07 to 12.3654 h/Mpc,
# number of wavenumbers equal to 140
#    1:k (h/Mpc)              2:P (Mpc/h)^3        
       1.957009798611e-07       4.297952461002e-01 
       2.463729366601e-07       5.333491497455e-01 
       3.101651507398e-07       6.618530984412e-01 
       3.904747901193e-07       8.213184998887e-01 
       4.915786359462e-07       1.019205136302e+00 
       6.188608366878e-07       1.264770132101e+00 
       7.790996336704e-07       1.569501000879e+00 
       9.808283271472e-07       1.947653028457e+00 
       1.234789705653e-06       2.416916130612e+00 
       1.554508138669e-06       2.999242379024e+00 
       1.957009798611e-06       3.721872901898e+00 
       2.463729366601e-06       4.618612191799e+00 
       3.101651507398e-06       5.731409420340e+00 
       3.904747901193e-06       7.112320698908e+00 
       4.915786359462e-06       8.825944031521e+00 
       6.188608366878e-06       1.095244075204e+01 
       7.790996336704e-06       1.359128457396e+01 
       9.808283271472e-06       1.686591321472e+01 
       1.234789705653e-05       2.092949935056e+01 
       1.554508138669e-05       2.597210924445e+01 
       1.957009798611e-05       3.222958068861e+01 
       2.463729366601e-05       3.999452925269e+01 
       3.101651507398e-05       4.962998524307e+01 
       3.904747901193e-05       6.158627487404e+01 
       4.915786359462e-05       7.642188733849e+01 
       6.188608366878e-05       9.482920988768e+01 
       7.790996336704e-05       1.176661506941e+02 
       9.808283271472e-05       1.459947697829e+02 
       1.234789705653e-04       1.811280282005e+02 
       1.554508138669e-04       2.246854997431e+02 
       1.957009798611e-04       2.786580971347e+02 
       2.463729366601e-04       3.454800760508e+02 
       3.101651507398e-04       4.281030796100e+02 
       3.904747901193e-04       5.300609413490e+02 
       4.915786359462e-04       6.555051538575e+02 
       6.188608366878e-04       8.091815960418e+02 
       7.790996336704e-04       9.963161261271e+02 
       9.808283271472e-04       1.222385179365e+03 
       1.234789705653e-03       1.492738301754e+03 
       1.554508138669e-03       1.811931298736e+03 
       1.957009798611e-03       2.182528398798e+03 
       2.463729366601e-03       2.603478316470e+03 
       3.101651507398e-03       3.068296510791e+03 
       3.904747901193e-03       3.563109792814e+03 
       4.915786359462e-03       4.064934134153e+03 
       6.188608366878e-03       4.540791949794e+03 
       7.790996336704e-03       4.946219248243e+03 
       9.808283271472e-03       5.235000949995e+03 
       1.234789705653e-02       5.352795554373e+03 
       1.554508138669e-02       5.251111572256e+03 
       1.957009798132e-02       4.899101763756e+03 
       2.463728493167e-02       4.306620846945e+03 
       3.101404898478e-02       3.553339150140e+03 
       3.889597255358e-02       2.804142082865e+03 
       4.687142712020e-02       2.289988872194e+03 
       5.263963546513e-02       2.032506224316e+03 
       5.714353807744e-02       1.871680718384e+03 
       6.104954927461e-02       1.748097078525e+03 
       6.463300335798e-02       1.641436359263e+03 
       6.802969658960e-02       1.543266822756e+03 
       7.131705789209e-02       1.449907138543e+03 
       7.454408230814e-02       1.359983967749e+03 
       7.774430319055e-02       1.273368258393e+03 
       8.094214600181e-02       1.190602513189e+03 
       8.415634134108e-02       1.112533898818e+03 
       8.740189398258e-02       1.040052374544e+03 
       9.069128504399e-02       9.738976162655e+02 
       9.403524037414e-02       9.145221556276e+02 
       9.744324050201e-02       8.620058801475e+02 
       1.009238697497e-01       8.160184560130e+02 
       1.044850614452e-01       7.758274780759e+02 
       1.081342738017e-01       7.403515372371e+02 
       1.118786181900e-01       7.082586686917e+02 
       1.157249538880e-01       6.781100179568e+02 
       1.196799587015e-01       6.485414372817e+02 
       1.237501818908e-01       6.184624121040e+02 
       1.279420839384e-01       5.872354197803e+02 
       1.322620664454e-01       5.547876204351e+02 
       1.367164946213e-01       5.216118565139e+02 
       1.413117142847e-01       4.886381799948e+02 
       1.460540649240e-01       4.569969917552e+02 
       1.509498901286e-01       4.277317821588e+02 
       1.560055465426e-01       4.015377029389e+02 
       1.612274123904e-01       3.785936894473e+02 
       1.666218965613e-01       3.585300142724e+02 
       1.721954491993e-01       3.405419890605e+02 
       1.779545747199e-01       3.236292742915e+02 
       1.839058481594e-01       3.069030805244e+02 
       1.900559357500e-01       2.898642658804e+02 
       1.964116206101e-01       2.725397082008e+02 
       2.029798344345e-01       2.554065917259e+02 
       2.097676960823e-01       2.391312584806e+02 
       2.167825579789e-01       2.242463194190e+02 
       2.240320613018e-01       2.109199548661e+02 
       2.315242009966e-01       1.989191171834e+02 
       2.392674018006e-01       1.877702656859e+02 
       2.472706066429e-01       1.770248745396e+02 
       2.555433790616e-01       1.664801830334e+02 
       2.640960216601e-01       1.562280826918e+02 
       2.729397131390e-01       1.465155739334e+02 
       2.820866671277e-01       1.375305389985e+02 
       2.915503169591e-01       1.292702700519e+02 
       3.013455317348e-01       1.215727557836e+02 
       3.114888706351e-01       1.142597512998e+02 
       3.219988845482e-01       1.072599991386e+02 
       3.328964769423e-01       1.006141536154e+02 
       3.442053397358e-01       9.438147327553e+01 
       3.559524851657e-01       8.855671866264e+01 
       3.681689018872e-01       8.307549718307e+01 
       3.808903736896e-01       7.787963905259e+01 
       3.941585136510e-01       7.295553654273e+01 
       4.080220874416e-01       6.830919520784e+01 
       4.225387302541e-01       6.392738644765e+01 
       4.377772080331e-01       5.977915566549e+01 
       4.538204445371e-01       5.584197682355e+01 
       4.707696470268e-01       5.210597551009e+01 
       4.887500426387e-01       4.855775612968e+01 
       5.079190347814e-01       4.517773536702e+01 
       5.284780979901e-01       4.194927429160e+01 
       5.506906337294e-01       3.885734568116e+01 
       5.749096822062e-01       3.588320923800e+01 
       6.016226271279e-01       3.300723240638e+01 
       6.315266555753e-01       3.020759477410e+01 
       6.656631114675e-01       2.745737847996e+01 
       7.056722270697e-01       2.472371359101e+01 
       7.543126468840e-01       2.196262335940e+01 
       8.166085583735e-01       1.911460097589e+01 
       9.025503061859e-01       1.609877566511e+01 
       1.033092919061e+00       1.284731767062e+01 
       1.244846193547e+00       9.526287180423e+00 
       1.557013927554e+00       6.774743478202e+00 
       1.959783163304e+00       4.856775844137e+00 
       2.467217809029e+00       3.524977456686e+00 
       3.106043192265e+00       2.573339287347e+00 
       3.910276704872e+00       1.875610734858e+00 
       4.922746710910e+00       1.354843442234e+00 
       6.197370930190e+00       9.634354214941e-01 
       7.802027750331e+00       6.707703937804e-01 
       9.822170998415e+00       4.555548766260e-01 
       1.236538066889e+01       3.013016792666e-01 
