# Matter power spectrum P(k) at redshift z=2.5
# for k=2.33661e-07 to 11.7273 h/Mpc,
# number of wavenumbers equal to 139
#    1:k (h/Mpc)              2:P (Mpc/h)^3        
       2.336606073989e-07       1.210321760364e-01 
       2.941612763897e-07       1.505049699504e-01 
       3.703271060128e-07       1.871547444239e-01 
       4.662142044357e-07       2.327291806892e-01 
       5.869289093035e-07       2.894015412581e-01 
       7.388997188388e-07       3.598743047222e-01 
       9.302196328138e-07       4.475080350691e-01 
       1.171077134299e-06       5.564816339777e-01 
       1.474298763540e-06       6.919916151733e-01 
       1.856032177998e-06       8.604999056041e-01 
       2.336606073989e-06       1.070041986349e+00 
       2.941612763897e-06       1.330610070798e+00 
       3.703271060128e-06       1.654629586477e+00 
       4.662142044357e-06       2.057551685592e+00 
       5.869289093035e-06       2.558590025080e+00 
       7.388997188388e-06       3.181636948617e+00 
       9.302196328138e-06       3.956402734140e+00 
       1.171077134299e-05       4.919832194906e+00 
       1.474298763540e-05       6.117866110261e+00 
       1.856032177998e-05       7.607631322701e+00 
       2.336606073989e-05       9.460163646715e+00 
       2.941612763897e-05       1.176379282343e+01 
       3.703271060128e-05       1.462834977565e+01 
       4.662142044357e-05       1.819039447472e+01 
       5.869289093035e-05       2.261970914912e+01 
       7.388997188388e-05       2.812735758217e+01 
       9.302196328138e-05       3.497567711931e+01 
       1.171077134299e-04       4.349064548832e+01 
       1.474298763540e-04       5.407714458156e+01 
       1.856032177998e-04       6.723771769387e+01 
       2.336606073989e-04       8.359546039887e+01 
       2.941612763897e-04       1.039216502289e+02 
       3.703271060128e-04       1.291685183130e+02 
       4.662142044357e-04       1.605070539064e+02 
       5.869289093035e-04       1.993687212747e+02 
       7.388997188388e-04       2.474883172416e+02 
       9.302196328138e-04       3.069430715806e+02 
       1.171077134299e-03       3.801811827875e+02 
       1.474298763540e-03       4.700312020011e+02 
       1.856032177998e-03       5.796756535610e+02 
       2.336606073989e-03       7.125445784164e+02 
       2.941612763897e-03       8.720599870911e+02 
       3.703271060128e-03       1.061203198862e+03 
       4.662142044357e-03       1.280057038463e+03 
       5.869289093035e-03       1.531068041159e+03 
       7.388997188388e-03       1.809210487482e+03 
       9.302196328138e-03       2.105364268708e+03 
       1.171077134299e-02       2.403133877245e+03 
       1.474298763540e-02       2.677149583073e+03 
       1.856032177455e-02       2.893092388807e+03 
       2.336605126885e-02       3.012444817697e+03 
       2.941354784390e-02       3.005984968771e+03 
       3.687888646993e-02       2.878135875581e+03 
       4.437164464261e-02       2.710553987440e+03 
       4.977830783530e-02       2.590650577448e+03 
       5.401224568770e-02       2.500076389081e+03 
       5.768999445285e-02       2.422869835213e+03 
       6.106702240016e-02       2.352141749369e+03 
       6.426978649592e-02       2.284486123967e+03 
       6.737057768403e-02       2.218087480313e+03 
       7.041522695291e-02       2.152008200074e+03 
       7.343514843450e-02       2.085869452764e+03 
       7.645325142071e-02       2.019680326884e+03 
       7.948712154297e-02       1.953724003994e+03 
       8.255085852956e-02       1.888467012199e+03 
       8.565619943656e-02       1.824474593898e+03 
       8.881323721543e-02       1.762328726901e+03 
       9.203089794545e-02       1.702549209538e+03 
       9.531726774561e-02       1.645521663505e+03 
       9.867982250734e-02       1.591438381729e+03 
       1.021255927365e-01       1.540259723492e+03 
       1.056612838136e-01       1.491701938757e+03 
       1.092933648460e-01       1.445258521134e+03 
       1.130281349027e-01       1.400257740156e+03 
       1.168717726583e-01       1.355955390941e+03 
       1.208303736954e-01       1.311653719754e+03 
       1.249099785471e-01       1.266829165220e+03 
       1.291165937942e-01       1.221244291982e+03 
       1.334562080146e-01       1.175013565184e+03 
       1.379348040449e-01       1.128598755243e+03 
       1.425583687833e-01       1.082721950192e+03 
       1.473329016215e-01       1.038206182721e+03 
       1.522644224916e-01       9.957765170330e+02 
       1.573589804616e-01       9.558715573617e+02 
       1.626226637686e-01       9.185212870311e+02 
       1.680616121624e-01       8.833349484859e+02 
       1.736820324109e-01       8.496181424317e+02 
       1.794902178124e-01       8.165976571775e+02 
       1.854925725533e-01       7.836884364539e+02 
       1.916956417455e-01       7.507044876111e+02 
       1.981061479914e-01       7.179187212095e+02 
       2.047310353443e-01       6.859308771796e+02 
       2.115775215760e-01       6.553894078370e+02 
       2.186531597458e-01       6.266925741889e+02 
       2.259659101831e-01       5.998142832114e+02 
       2.335242241788e-01       5.743465971469e+02 
       2.413371409443e-01       5.497407923047e+02 
       2.494143997508e-01       5.256150971033e+02 
       2.577665696580e-01       5.019451465614e+02 
       2.664051998895e-01       4.790163310483e+02 
       2.753429947862e-01       4.571752906869e+02 
       2.845940184140e-01       4.365639562638e+02 
       2.941739354233e-01       4.170320645855e+02 
       3.041002967770e-01       3.982826418979e+02 
       3.143928816635e-01       3.801149436964e+02 
       3.250741105561e-01       3.625480991072e+02 
       3.361695493588e-01       3.457261755519e+02 
       3.477085314591e-01       3.297211520250e+02 
       3.597249341532e-01       3.144462943645e+02 
       3.722581596450e-01       2.997556573914e+02 
       3.853543906917e-01       2.855876323137e+02 
       3.990682202512e-01       2.719729758664e+02 
       4.134647984753e-01       2.589230090032e+02 
       4.286227078968e-01       2.463738046343e+02 
       4.446378837067e-01       2.342534774584e+02 
       4.616290669856e-01       2.225380639275e+02 
       4.797455624521e-01       2.112066689295e+02 
       4.991785584938e-01       2.002030597568e+02 
       5.201781313545e-01       1.894714194829e+02 
       5.430796555052e-01       1.789645402642e+02 
       5.683464470490e-01       1.686132170156e+02 
       5.966418198044e-01       1.583337346875e+02 
       6.289575376224e-01       1.480202477577e+02 
       6.668577122685e-01       1.375231505975e+02 
       7.129770581076e-01       1.266261999192e+02 
       7.721229030377e-01       1.150000950027e+02 
       8.538715303473e-01       1.021473539953e+02 
       9.783063508170e-01       8.745232517342e+01 
       1.180157353055e+00       7.106817466867e+01 
       1.476646507412e+00       5.567081665071e+01 
       1.858657949079e+00       4.307883608837e+01 
       2.339909203352e+00       3.278648810174e+01 
       2.945771154225e+00       2.432359585720e+01 
       3.708506163384e+00       1.746826150031e+01 
       4.668732648879e+00       1.209666011454e+01 
       5.877586172547e+00       8.079132798105e+00 
       7.399442592630e+00       5.224826727705e+00 
       9.315346312974e+00       3.290233228969e+00 
       1.172732619307e+01       2.028823834368e+00 
