# Matter power spectrum P(k) at redshift z=1.5
# for k=2.28199e-07 to 11.4488 h/Mpc,
# number of wavenumbers equal to 139
#    1:k (h/Mpc)              2:P (Mpc/h)^3        
       2.281994966026e-07       2.035912865852e-01 
       2.872861452317e-07       2.528536264048e-01 
       3.616718286885e-07       3.140358186464e-01 
       4.553178558661e-07       3.900220723452e-01 
       5.732112191934e-07       4.843944790335e-01 
       7.216301701681e-07       6.016018775986e-01 
       9.084785591420e-07       7.471695778030e-01 
       1.143706744174e-06       9.279598301386e-01 
       1.439841483881e-06       1.152495320254e+00 
       1.812653033013e-06       1.431360937486e+00 
       2.281994966026e-06       1.777702755869e+00 
       2.872861452317e-06       2.207847748508e+00 
       3.616718286885e-06       2.742073446140e+00 
       4.553178558661e-06       3.405563812521e+00 
       5.732112191934e-06       4.229596383921e+00 
       7.216301701681e-06       5.253016603713e+00 
       9.084785591420e-06       6.524068791427e+00 
       1.143706744174e-05       8.102669940649e+00 
       1.439841483881e-05       1.006323329542e+01 
       1.812653033013e-05       1.249817433849e+01 
       2.281994966026e-05       1.552226354314e+01 
       2.872861452317e-05       1.927802925635e+01 
       3.616718286885e-05       2.394246181824e+01 
       4.553178558661e-05       2.973532790118e+01 
       5.732112191934e-05       3.692947313759e+01 
       7.216301701681e-05       4.586357147138e+01 
       9.084785591420e-05       5.695786889630e+01 
       1.143706744174e-04       7.073355937981e+01 
       1.439841483881e-04       8.783650329949e+01 
       1.812653033013e-04       1.090660136231e+02 
       2.281994966026e-04       1.354093149003e+02 
       2.872861452317e-04       1.680818837540e+02 
       3.616718286885e-04       2.085729768191e+02 
       4.553178558661e-04       2.586939319043e+02 
       5.732112191934e-04       3.206240426758e+02 
       7.216301701681e-04       3.969452166623e+02 
       9.084785591420e-04       4.906536140871e+02 
       1.143706744174e-03       6.051353642370e+02 
       1.439841483881e-03       7.440873603783e+02 
       1.812653033013e-03       9.113291681345e+02 
       2.281994966026e-03       1.110402041241e+03 
       2.872861452317e-03       1.343914191743e+03 
       3.616718286885e-03       1.612644461535e+03 
       4.553178558661e-03       1.914335342299e+03 
       5.732112191934e-03       2.242196658942e+03 
       7.216301701681e-03       2.580783508343e+03 
       9.084785591420e-03       2.913283416293e+03 
       1.143706744174e-02       3.208253404555e+03 
       1.439841483881e-02       3.427024307919e+03 
       1.812653033010e-02       3.524827984748e+03 
       2.281994946867e-02       3.459981223853e+03 
       2.872847060469e-02       3.213968113164e+03 
       3.614747754319e-02       2.821472463415e+03 
       4.488239727026e-02       2.404228140172e+03 
       5.223123079578e-02       2.137110482024e+03 
       5.756361978242e-02       1.985105711284e+03 
       6.196341335959e-02       1.877224868736e+03 
       6.589296691430e-02       1.788583859680e+03 
       6.955856806168e-02       1.708981344677e+03 
       7.306947396721e-02       1.633546772124e+03 
       7.649122674225e-02       1.559885384478e+03 
       7.986689377191e-02       1.486982350432e+03 
       8.322683588096e-02       1.414684792239e+03 
       8.659370969734e-02       1.343399639132e+03 
       8.998524825785e-02       1.273878383629e+03 
       9.341590905609e-02       1.207039601764e+03 
       9.689790234224e-02       1.143813568465e+03 
       1.004418601718e-01       1.085006612600e+03 
       1.040572869932e-01       1.031188714849e+03 
       1.077528718880e-01       9.826099288907e+02 
       1.115367100779e-01       9.391507639127e+02 
       1.154164630767e-01       9.003116887405e+02 
       1.193994762174e-01       8.652464241178e+02 
       1.234928658559e-01       8.328432444643e+02 
       1.277035845542e-01       8.018554548512e+02 
       1.320384700042e-01       7.710737990025e+02 
       1.365042818024e-01       7.395207641473e+02 
       1.411077290987e-01       7.066308967413e+02 
       1.458554914232e-01       6.723705535253e+02 
       1.507542345125e-01       6.372535017001e+02 
       1.558106226382e-01       6.022296369079e+02 
       1.610313287326e-01       5.684605660161e+02 
       1.664230434656e-01       5.370324435656e+02 
       1.719924843450e-01       5.086799895795e+02 
       1.777464058542e-01       4.835954434395e+02 
       1.836916116107e-01       4.613770945736e+02 
       1.898349695035e-01       4.411417849808e+02 
       1.961834307569e-01       4.217881522745e+02 
       2.027440538561e-01       4.023482590877e+02 
       2.095240342669e-01       3.823131227858e+02 
       2.165307408831e-01       3.617952175741e+02 
       2.237717601531e-01       3.414379804882e+02 
       2.312549488698e-01       3.220970615099e+02 
       2.389884966725e-01       3.044382023164e+02 
       2.469809994188e-01       2.886434831683e+02 
       2.552415447420e-01       2.743642177742e+02 
       2.637798113510e-01       2.609397435524e+02 
       2.726061839604e-01       2.477677092538e+02 
       2.817318862007e-01       2.346180446340e+02 
       2.911691344722e-01       2.216982699082e+02 
       3.009313165329e-01       2.094336576197e+02 
       3.110331996999e-01       1.981287289742e+02 
       3.214911749861e-01       1.877593582783e+02 
       3.323235454027e-01       1.780349863502e+02 
       3.435508692029e-01       1.686561758568e+02 
       3.551963722565e-01       1.595380114599e+02 
       3.672864483786e-01       1.508095380291e+02 
       3.798512727892e-01       1.426185533314e+02 
       3.929255627225e-01       1.349598134572e+02 
       4.065495316740e-01       1.276977117126e+02 
       4.207701016527e-01       1.207246342076e+02 
       4.356424638667e-01       1.140485547813e+02 
       4.512321169913e-01       1.077176224116e+02 
       4.676175708437e-01       1.017148368973e+02 
       4.848939942200e-01       9.597460738747e+01 
       5.031782300412e-01       9.046558133143e+01 
       5.226158365354e-01       8.519146878878e+01 
       5.433912093532e-01       8.013223022116e+01 
       5.657425287382e-01       7.524941489234e+01 
       5.899845217208e-01       7.052162499822e+01 
       6.165443811896e-01       6.592469147754e+01 
       6.460208479810e-01       6.142080698804e+01 
       6.792862457074e-01       5.697207366599e+01 
       7.176731166452e-01       5.252710345023e+01 
       7.633394249053e-01       4.801683176674e+01 
       8.200402511382e-01       4.334199046309e+01 
       8.948898125143e-01       3.835468243577e+01 
       1.002524124404e+00       3.285104178674e+01 
       1.172795413161e+00       2.670451862813e+01 
       1.443706110989e+00       2.048286893034e+01 
       1.814555207798e+00       1.539493546461e+01 
       2.284333880112e+00       1.153527735783e+01 
       2.875805765194e+00       8.566658784936e+00 
       3.620424957081e+00       6.262513042712e+00 
       4.557844979963e+00       4.481666507257e+00 
       5.737986868294e+00       3.127106551133e+00 
       7.223697481036e+00       2.122021137604e+00 
       9.094096325990e+00       1.398984844781e+00 
       1.144878896209e+01       8.968599776433e-01 
