# Matter power spectrum P(k) at redshift z=0
# for k=1.27588e-05 to 8.06151 h/Mpc,
# number of wavenumbers equal to 120
#    1:k (h/Mpc)              2:P (Mpc/h)^3        
       1.275883221264e-05       2.208271139667e+01 
       1.606241809732e-05       2.770397779237e+01 
       2.022138631757e-05       3.475615271728e+01 
       2.545721709690e-05       4.360345031031e+01 
       3.204873751685e-05       5.470279621953e+01 
       4.034697007588e-05       6.862738259311e+01 
       5.079382591742e-05       8.609622809999e+01 
       6.394563820970e-05       1.080112219516e+02 
       8.050278891558e-05       1.355035206369e+02 
       1.013470066861e-04       1.699915912179e+02 
       1.275883221264e-04       2.132537384071e+02 
       1.606241809732e-04       2.675184874828e+02 
       2.022138631757e-04       3.355768211129e+02 
       2.545721709690e-04       4.209207577766e+02 
       3.204873751685e-04       5.279130066190e+02 
       4.034697007588e-04       6.619921216159e+02 
       5.079382591742e-04       8.299163987789e+02 
       6.394563820970e-04       1.040047547719e+03 
       8.050278891558e-04       1.302671608634e+03 
       1.013470066861e-03       1.630347395884e+03 
       1.275883221264e-03       2.038250980271e+03 
       1.606241809732e-03       2.544412437354e+03 
       2.022138631757e-03       3.169607917342e+03 
       2.545721709690e-03       3.937530218927e+03 
       3.204873751685e-03       4.873338354628e+03 
       4.034697007588e-03       6.001791753309e+03 
       5.079382591742e-03       7.343708539188e+03 
       6.394563820970e-03       8.910176536567e+03 
       8.050278891558e-03       1.069325326842e+04 
       1.013470066861e-02       1.265416324180e+04 
       1.275883221264e-02       1.470623130888e+04 
       1.606241809732e-02       1.669614721083e+04 
       2.022138631495e-02       1.839234961046e+04 
       2.545721151122e-02       1.950559419826e+04 
       3.204694500197e-02       1.977625031890e+04 
       4.022451471872e-02       1.916398958644e+04 
       4.873041117642e-02       1.816933543064e+04 
       5.494676564834e-02       1.745462072581e+04 
       5.974995429008e-02       1.694100413114e+04 
       6.389133301208e-02       1.651681968799e+04 
       6.767853373753e-02       1.613146051442e+04 
       7.126131649659e-02       1.575939656232e+04 
       7.472428012224e-02       1.538546534453e+04 
       7.812059259784e-02       1.500090568445e+04 
       8.148645175398e-02       1.460150958700e+04 
       8.484811122747e-02       1.418638268650e+04 
       8.822563139315e-02       1.375729123669e+04 
       9.163503293665e-02       1.331840151877e+04 
       9.508960661498e-02       1.287528849140e+04 
       9.860074777922e-02       1.243483666819e+04 
       1.021785087775e-01       1.200399188359e+04 
       1.058319763204e-01       1.158982270069e+04 
       1.095695360703e-01       1.119739377149e+04 
       1.133990621464e-01       1.083052489144e+04 
       1.173280551805e-01       1.049037747306e+04 
       1.213637442085e-01       1.017510860384e+04 
       1.255131625722e-01       9.880473285742e+03 
       1.297832047866e-01       9.599636697947e+03 
       1.341806692633e-01       9.324296477894e+03 
       1.387122904298e-01       9.045593843318e+03 
       1.433847628876e-01       8.756190067597e+03 
       1.482047596622e-01       8.451395243960e+03 
       1.531789461979e-01       8.130705477967e+03 
       1.583139914901e-01       7.798037969570e+03 
       1.636165775771e-01       7.461269828383e+03 
       1.690934085013e-01       7.130654393385e+03 
       1.747512197807e-01       6.816379463652e+03 
       1.805967893896e-01       6.526054567390e+03 
       1.866369512179e-01       6.262294245868e+03 
       1.928786119628e-01       6.022204691679e+03 
       1.993287723931e-01       5.797609478680e+03 
       2.059945539207e-01       5.578351993218e+03 
       2.128832314099e-01       5.354606827941e+03 
       2.200022731669e-01       5.120316577280e+03 
       2.273593890713e-01       4.877166900004e+03 
       2.349625878631e-01       4.633645947046e+03 
       2.428202446773e-01       4.400542035369e+03 
       2.509411800537e-01       4.185693636392e+03 
       2.593347518397e-01       3.991190477887e+03 
       2.680109616901e-01       3.812881454883e+03 
       2.769805782509e-01       3.641797682911e+03 
       2.862552796501e-01       3.469688435187e+03 
       2.958478186226e-01       3.293991484185e+03 
       3.057722145402e-01       3.118568115333e+03 
       3.160439778651e-01       2.950812512014e+03 
       3.266803741886e-01       2.796489907663e+03 
       3.377007372085e-01       2.654775819228e+03 
       3.491268429186e-01       2.519775225893e+03 
       3.609833612296e-01       2.386128164037e+03 
       3.732984066175e-01       2.252910162937e+03 
       3.861042168165e-01       2.124223981946e+03 
       3.994379989737e-01       2.003744308479e+03 
       4.133429974496e-01       1.891114479952e+03 
       4.278698587996e-01       1.782466745587e+03 
       4.430784008595e-01       1.675673812595e+03 
       4.590399399287e-01       1.572211768937e+03 
       4.758404021149e-01       1.474163120703e+03 
       4.935845578660e-01       1.380627727929e+03 
       5.124019003392e-01       1.289679593762e+03 
       5.324549887618e-01       1.201153221913e+03 
       5.539515912489e-01       1.116059019354e+03 
       5.771628704249e-01       1.033691709270e+03 
       6.024515312030e-01       9.529332387987e+02 
       6.303170864912e-01       8.741262424802e+02 
       6.614719826619e-01       7.965158439869e+02 
       6.969765497608e-01       7.193660357158e+02 
       7.384935600455e-01       6.419487236670e+02 
       7.888043764168e-01       5.630047188592e+02 
       8.529418611180e-01       4.808803405501e+02 
       9.408495266302e-01       3.934117966098e+02 
       1.073381004563e+00       2.989362168041e+02 
       1.288194815350e+00       2.026346198059e+02 
       1.608916803317e+00       1.245963829919e+02 
       2.024964326314e+00       7.436507749581e+01 
       2.549274199982e+00       4.383613604748e+01 
       3.209346064619e+00       2.556645421855e+01 
       4.040327315989e+00       1.476949898376e+01 
       5.086470730064e+00       8.459069117946e+00 
       6.403487258425e+00       4.807231963976e+00 
       8.061512833732e+00       2.712734080222e+00 
