# Matter power spectrum P(k) at redshift z=0
# for k=1.3739e-05 to 8.6807 h/Mpc,
# number of wavenumbers equal to 120
#    1:k (h/Mpc)              2:P (Mpc/h)^3        
       1.373899317308e-05       2.235117584558e+01 
       1.729636763806e-05       2.800206310272e+01 
       2.177483675129e-05       3.508161378381e+01 
       2.741289532387e-05       4.395098167611e+01 
       3.451079053407e-05       5.506266221258e+01 
       4.344651118445e-05       6.898346469178e+01 
       5.469591698390e-05       8.642342796425e+01 
       6.885807981242e-05       1.082719508981e+02 
       8.668718648320e-05       1.356429314537e+02 
       1.091327019406e-04       1.699312592136e+02 
       1.373899317308e-04       2.128831544645e+02 
       1.729636763806e-04       2.666837540892e+02 
       2.177483675129e-04       3.340655901174e+02 
       2.741289532387e-04       4.184421876519e+02 
       3.451079053407e-04       5.240710595483e+02 
       4.344651118445e-04       6.562499570290e+02 
       5.469591698390e-04       8.215487989157e+02 
       6.885807981242e-04       1.028077275477e+03 
       8.668718648320e-04       1.285784377509e+03 
       1.091327019406e-03       1.606778315866e+03 
       1.373899317308e-03       2.005632643500e+03 
       1.729636763806e-03       2.499595606374e+03 
       2.177483675129e-03       3.108550519392e+03 
       2.741289532387e-03       3.854573990879e+03 
       3.451079053407e-03       4.761161488674e+03 
       4.344651118445e-03       5.850885678699e+03 
       5.469591698390e-03       7.141989319054e+03 
       6.885807981242e-03       8.642880383345e+03 
       8.668718648320e-03       1.034347682434e+04 
       1.091327019406e-02       1.220483587719e+04 
       1.373899317308e-02       1.414443437786e+04 
       1.729636763806e-02       1.602086057986e+04 
       2.177483674895e-02       1.762769161561e+04 
       2.741289010184e-02       1.871014771506e+04 
       3.450905057919e-02       1.904027382037e+04 
       4.332390324850e-02       1.856827599042e+04 
       5.256303639859e-02       1.769293298333e+04 
       5.934037167946e-02       1.701916341664e+04 
       6.456085633811e-02       1.651270846330e+04 
       6.905417315511e-02       1.608117740982e+04 
       7.315927411322e-02       1.568305024563e+04 
       7.704053297998e-02       1.529707546829e+04 
       8.079054835777e-02       1.491177182566e+04 
       8.446739888549e-02       1.452090374549e+04 
       8.811056432033e-02       1.412167419823e+04 
       9.174864266588e-02       1.371444240866e+04 
       9.540346263655e-02       1.330085194550e+04 
       9.909244145549e-02       1.288451262645e+04 
       1.028300171930e-01       1.246996348285e+04 
       1.066285605461e-01       1.206196608747e+04 
       1.104989779211e-01       1.166552926236e+04 
       1.144511231594e-01       1.128476542086e+04 
       1.184940860698e-01       1.092241442887e+04 
       1.226363989939e-01       1.057980212879e+04 
       1.268861872421e-01       1.025636138502e+04 
       1.312512800945e-01       9.949362877892e+03 
       1.357392934740e-01       9.654493242753e+03 
       1.403576918829e-01       9.366139814045e+03 
       1.451138349320e-01       9.078616513403e+03 
       1.500150123208e-01       8.786388365788e+03 
       1.550684701477e-01       8.485782002743e+03 
       1.602814307807e-01       8.175820366036e+03 
       1.656611080883e-01       7.858421326150e+03 
       1.712147195410e-01       7.538318478828e+03 
       1.769494965100e-01       7.222142156538e+03 
       1.828726939653e-01       6.916880185665e+03 
       1.889916007032e-01       6.628228674247e+03 
       1.953135511829e-01       6.359029777947e+03 
       2.018459400230e-01       6.108173423775e+03 
       2.085962401899e-01       5.871366355965e+03 
       2.155720258974e-01       5.641996981017e+03 
       2.227810012260e-01       5.413402110492e+03 
       2.302310354733e-01       5.181664681273e+03 
       2.379302062509e-01       4.946494943995e+03 
       2.458868513706e-01       4.711493155162e+03 
       2.541096306140e-01       4.483197606277e+03 
       2.626075985665e-01       4.267744099523e+03 
       2.713902898381e-01       4.067589992529e+03 
       2.804678182022e-01       3.880331977440e+03 
       2.898509914869e-01       3.701383990612e+03 
       2.995514444692e-01       3.526231981131e+03 
       3.095817925929e-01       3.352284867404e+03 
       3.199558100949e-01       3.180426158796e+03 
       3.306886371350e-01       3.014479242551e+03 
       3.417970218682e-01       2.857679471297e+03 
       3.532996051651e-01       2.710536814541e+03 
       3.652172580445e-01       2.571005879426e+03 
       3.775734850207e-01       2.435621355761e+03 
       3.903949108109e-01       2.303189230169e+03 
       4.037118736257e-01       2.175075024960e+03 
       4.175591562428e-01       2.052989602925e+03 
       4.319768972285e-01       1.937475295114e+03 
       4.470117405358e-01       1.826855588711e+03 
       4.627183046171e-01       1.719847293878e+03 
       4.791610858734e-01       1.616357094678e+03 
       4.964169617338e-01       1.517381473642e+03 
       5.145785359231e-01       1.422643144247e+03 
       5.337586894856e-01       1.331352124955e+03 
       5.540968956076e-01       1.243070340121e+03 
       5.757681778199e-01       1.157888026309e+03 
       5.989961399925e-01       1.075612804272e+03 
       6.240724675112e-01       9.957122714336e+02 
       6.513870878152e-01       9.178271414081e+02 
       6.814766289798e-01       8.417054204861e+02 
       7.151058281280e-01       7.667293944914e+02 
       7.534116658946e-01       6.923420083902e+02 
       7.981748485431e-01       6.176980869754e+02 
       8.523693416954e-01       5.416874868904e+02 
       9.213664586200e-01       4.627036079159e+02 
       1.015758359479e+00       3.786805160158e+02 
       1.157753793257e+00       2.880234721509e+02 
       1.387811654900e+00       1.954680254631e+02 
       1.732538066903e+00       1.201201668455e+02 
       2.180496960727e+00       7.158101429393e+01 
       2.745077109029e+00       4.212586805155e+01 
       3.455847320490e+00       2.452930574207e+01 
       4.350654011044e+00       1.414744873501e+01 
       5.477148892428e+00       8.089844994539e+00 
       6.895321924858e+00       4.590165265626e+00 
       8.680695993705e+00       2.586104632360e+00 
