# Matter power spectrum P(k) at redshift z=0
# for k=1.81067e-05 to 11.4362 h/Mpc,
# number of wavenumbers equal to 120
#    1:k (h/Mpc)              2:P (Mpc/h)^3        
       1.810666484307e-05       9.875569943324e+00 
       2.279494049378e-05       1.236208992288e+01 
       2.869712984796e-05       1.547467119271e+01 
       3.612754601115e-05       1.937094214189e+01 
       4.548188573921e-05       2.424820922873e+01 
       5.725830173340e-05       3.035344321883e+01 
       7.208393108836e-05       3.799577054113e+01 
       9.074829262916e-05       4.756209397021e+01 
       1.142453316678e-04       5.953662012259e+01 
       1.438263512154e-04       7.452524652869e+01 
       1.810666484307e-04       9.328598589090e+01 
       2.279494049378e-04       1.167668360811e+02 
       2.869712984796e-04       1.461527784910e+02 
       3.612754601115e-04       1.829238257065e+02 
       4.548188573921e-04       2.289262131562e+02 
       5.725830173341e-04       2.864588238083e+02 
       7.208393108836e-04       3.583766675860e+02 
       9.074829262916e-04       4.482126136219e+02 
       1.142453316678e-03       5.603175431048e+02 
       1.438263512154e-03       7.000166146075e+02 
       1.810666484307e-03       8.737717380800e+02 
       2.279494049378e-03       1.089165737236e+03 
       2.869712984796e-03       1.355324552080e+03 
       3.612754601115e-03       1.682574164840e+03 
       4.548188573921e-03       2.082194469465e+03 
       5.725830173340e-03       2.565728116335e+03 
       7.208393108836e-03       3.143673400319e+03 
       9.074829262916e-03       3.823302538479e+03 
       1.142453316678e-02       4.604746668959e+03 
       1.438263512154e-02       5.476021512497e+03 
       1.810666484307e-02       6.405063352360e+03 
       2.279494049378e-02       7.330062394791e+03 
       2.869712984786e-02       8.150967032520e+03 
       3.612754548041e-02       8.730323278360e+03 
       4.548154034508e-02       8.922744288523e+03 
       5.721622409249e-02       8.655843419620e+03 
       7.083729768046e-02       8.081915841494e+03 
       8.195949604078e-02       7.621400046051e+03 
       9.009814691776e-02       7.330021303409e+03 
       9.686772858234e-02       7.114882704081e+03 
       1.029396491607e-01       6.935157787829e+03 
       1.086178262079e-01       6.771052144628e+03 
       1.140650278015e-01       6.611275256759e+03 
       1.193796785846e-01       6.448880290143e+03 
       1.246268429554e-01       6.279703402157e+03 
       1.298526083476e-01       6.101629211159e+03 
       1.350915033700e-01       5.914244679315e+03 
       1.403706438944e-01       5.718597712596e+03 
       1.457122011225e-01       5.516971987329e+03 
       1.511349469657e-01       5.312644408723e+03 
       1.566552624327e-01       5.109507914709e+03 
       1.622878183771e-01       4.911699615883e+03 
       1.680460481601e-01       4.723094164868e+03 
       1.739424835035e-01       4.546979869925e+03 
       1.799889976275e-01       4.385537815385e+03 
       1.861969838516e-01       4.239583343524e+03 
       1.925774882060e-01       4.108340083274e+03 
       1.991413085981e-01       3.989334668471e+03 
       2.058990692581e-01       3.878712575447e+03 
       2.128612766992e-01       3.771427527386e+03 
       2.200383617927e-01       3.662327520365e+03 
       2.274407114720e-01       3.546679188104e+03 
       2.350786928533e-01       3.421336475817e+03 
       2.429626720812e-01       3.285571301566e+03 
       2.511030298904e-01       3.141329711625e+03 
       2.595101756696e-01       2.993144780274e+03 
       2.681945616848e-01       2.847110006864e+03 
       2.771666990358e-01       2.709625390156e+03 
       2.864371768692e-01       2.585553839232e+03 
       2.960166863416e-01       2.476973479510e+03 
       3.059160507997e-01       2.382558072061e+03 
       3.161462636350e-01       2.297637982176e+03 
       3.267185352615e-01       2.215077658022e+03 
       3.376443506704e-01       2.128224596602e+03 
       3.489355390437e-01       2.033516934015e+03 
       3.606043569637e-01       1.931661889722e+03 
       3.726635868612e-01       1.827326284492e+03 
       3.851266525158e-01       1.727348231006e+03 
       3.980077536824e-01       1.637724370847e+03 
       4.113220222964e-01       1.560438829387e+03 
       4.250857032444e-01       1.492757186512e+03 
       4.393163634154e-01       1.428741539975e+03 
       4.540331337316e-01       1.362235572064e+03 
       4.692569901668e-01       1.290755299052e+03 
       4.850110814939e-01       1.217158639326e+03 
       5.013211137914e-01       1.147113810020e+03 
       5.182158047784e-01       1.085006033714e+03 
       5.357274250911e-01       1.030684598915e+03 
       5.538924490493e-01       9.797191104656e+02 
       5.727523448421e-01       9.275791388547e+02 
       5.923545441931e-01       8.733701746311e+02 
       6.127536456799e-01       8.204947929740e+02 
       6.340129258079e-01       7.725168811005e+02 
       6.562062605464e-01       7.293131109746e+02 
       6.794206017970e-01       6.874755610259e+02 
       7.037592153899e-01       6.448888306985e+02 
       7.293459815192e-01       6.030832696031e+02 
       7.563312049394e-01       5.644731230718e+02 
       7.848996151979e-01       5.283915573223e+02 
       8.152816180972e-01       4.924968352678e+02 
       8.477695017304e-01       4.570784242911e+02 
       8.827414207134e-01       4.237268248336e+02 
       9.206980136244e-01       3.913975648400e+02 
       9.623203571634e-01       3.592259495964e+02 
       1.008565623972e+00       3.280957966828e+02 
       1.060832959524e+00       2.971958990279e+02 
       1.121268357814e+00       2.663511541212e+02 
       1.193364582418e+00       2.351488145913e+02 
       1.283236649029e+00       2.030470010527e+02 
       1.402549359418e+00       1.692120069951e+02 
       1.575413477574e+00       1.328181046080e+02 
       1.850440537471e+00       9.433809628721e+01 
       2.284704903448e+00       5.959422425634e+01 
       2.872687975586e+00       3.571702350753e+01 
       3.616439905846e+00       2.108849001686e+01 
       4.552827905089e+00       1.231479096091e+01 
       5.731670745158e+00       7.120765682417e+00 
       7.215745953117e+00       4.080973672919e+00 
       9.084085945429e+00       2.320135263401e+00 
       1.143618663962e+01       1.309497780169e+00 
