# Matter power spectrum P(k) at redshift z=0
# for k=1.17646e-05 to 7.43345 h/Mpc,
# number of wavenumbers equal to 120
#    1:k (h/Mpc)              2:P (Mpc/h)^3        
       1.176460123377e-05       3.181278404254e+01 
       1.481075545282e-05       3.970190239482e+01 
       1.864563640743e-05       4.954739299156e+01 
       2.347346549238e-05       6.183436049115e+01 
       2.955134221124e-05       7.716820883141e+01 
       3.720293566235e-05       9.630438546432e+01 
       4.683572109868e-05       1.201855810728e+02 
       5.896267947083e-05       1.499879942768e+02 
       7.422961553330e-05       1.871790413113e+02 
       9.344954930258e-05       2.335890675065e+02 
       1.176460123377e-04       2.915004729025e+02 
       1.481075545282e-04       3.637579676358e+02 
       1.864563640743e-04       4.539045401991e+02 
       2.347346549238e-04       5.663478410622e+02 
       2.955134221124e-04       7.065617551837e+02 
       3.720293566235e-04       8.813268690636e+02 
       4.683572109868e-04       1.099011371112e+03 
       5.896267947083e-04       1.369890082220e+03 
       7.422961553330e-04       1.706494256431e+03 
       9.344954930258e-04       2.123974210171e+03 
       1.176460123377e-03       2.640427104524e+03 
       1.481075545282e-03       3.277077248279e+03 
       1.864563640743e-03       4.057929960912e+03 
       2.347346549238e-03       5.009599296038e+03 
       2.955134221124e-03       6.159394817714e+03 
       3.720293566235e-03       7.532524742091e+03 
       4.683572109868e-03       9.147409891989e+03 
       5.896267947083e-03       1.100831226062e+04 
       7.422961553330e-03       1.309413858973e+04 
       9.344954930258e-03       1.534545500289e+04 
       1.176460123377e-02       1.764381758934e+04 
       1.481075545282e-02       1.979650068513e+04 
       1.864563640395e-02       2.152730175207e+04 
       2.347345871184e-02       2.251078912946e+04 
       2.954932000280e-02       2.248422862868e+04 
       3.707291880043e-02       2.147151340982e+04 
       4.477823772410e-02       2.014645399468e+04 
       5.037360957263e-02       1.924307751859e+04 
       5.472306402455e-02       1.859785612580e+04 
       5.848584206720e-02       1.806707293602e+04 
       6.193318967538e-02       1.758754827661e+04 
       6.519814464487e-02       1.712795255199e+04 
       6.835626241350e-02       1.667084527026e+04 
       7.145521355468e-02       1.620599976596e+04 
       7.452755143869e-02       1.572893717952e+04 
       7.759694436392e-02       1.523873365272e+04 
       8.068151444444e-02       1.473775096061e+04 
       8.379575991267e-02       1.423089529607e+04 
       8.695172681675e-02       1.372407693348e+04 
       9.015975692393e-02       1.322492878477e+04 
       9.342898352364e-02       1.274088497531e+04 
       9.676767054464e-02       1.227859624365e+04 
       1.001834505669e-01       1.184279697626e+04 
       1.036834954318e-01       1.143716333885e+04 
       1.072746406116e-01       1.106120516358e+04 
       1.109634770449e-01       1.071233395887e+04 
       1.147564195681e-01       1.038487361646e+04 
       1.186597581947e-01       1.007097220189e+04 
       1.226796966446e-01       9.761597763761e+03 
       1.268223813079e-01       9.447537580363e+03 
       1.310939230335e-01       9.121974310675e+03 
       1.355004135935e-01       8.781284290192e+03 
       1.400479383226e-01       8.426072314034e+03 
       1.447425861951e-01       8.061807989525e+03 
       1.495904584492e-01       7.697507569985e+03 
       1.545976767690e-01       7.343942974375e+03 
       1.597703919732e-01       7.010986968600e+03 
       1.651147941190e-01       6.705005597052e+03 
       1.706371249081e-01       6.427003265557e+03 
       1.763436932626e-01       6.172212951289e+03 
       1.822408949305e-01       5.931379118726e+03 
       1.883352369732e-01       5.693757540193e+03 
       1.946333679843e-01       5.450869910233e+03 
       2.011421149018e-01       5.198567771513e+03 
       2.078685272921e-01       4.940051525461e+03 
       2.148199300339e-01       4.685044232554e+03 
       2.220039854043e-01       4.444086313338e+03 
       2.294287656915e-01       4.223334603480e+03 
       2.371028376420e-01       4.022606372873e+03 
       2.450353603060e-01       3.836355215449e+03 
       2.532361982096e-01       3.655910887072e+03 
       2.617160522688e-01       3.474263653080e+03 
       2.704866115167e-01       3.290795793649e+03 
       2.795607295869e-01       3.110491423811e+03 
       2.889526310463e-01       2.940015233070e+03 
       2.986781541913e-01       2.783319535320e+03 
       3.087550389469e-01       2.638205721817e+03 
       3.192032712081e-01       2.498615552771e+03 
       3.300454986123e-01       2.360719954770e+03 
       3.413075377086e-01       2.224878993789e+03 
       3.530189993632e-01       2.095134759296e+03 
       3.652140688739e-01       1.973872414222e+03 
       3.779324909640e-01       1.859670952647e+03 
       3.912208296349e-01       1.749153659989e+03 
       4.051341020083e-01       1.641242668189e+03 
       4.197379290404e-01       1.537679135131e+03 
       4.351114130460e-01       1.439591834413e+03 
       4.513510571750e-01       1.345622183532e+03 
       4.685762113476e-01       1.254508302558e+03 
       4.869368097233e-01       1.166402492433e+03 
       5.066246447497e-01       1.081780566064e+03 
       5.278902740850e-01       9.998142332324e+02 
       5.510692293538e-01       9.198215027989e+02 
       5.766242390228e-01       8.419020295832e+02 
       6.052163858097e-01       7.652536591325e+02 
       6.378315625516e-01       6.893037800531e+02 
       6.760197027995e-01       6.132268892146e+02 
       7.223814664599e-01       5.358477976123e+02 
       7.816401244672e-01       4.555571659670e+02 
       8.631619398096e-01       3.703085165583e+02 
       9.865941790953e-01       2.787568573869e+02 
       1.186773038284e+00       1.866336555383e+02 
       1.483500975829e+00       1.135513201649e+02 
       1.867200102851e+00       6.718454426385e+01 
       2.350662179551e+00       3.927662093399e+01 
       2.959308347520e+00       2.272526680031e+01 
       3.725548480027e+00       1.302737618737e+01 
       4.690187654377e+00       7.405846264033e+00 
       5.904596424178e+00       4.178349657013e+00 
       7.433446484787e+00       2.341207169536e+00 
