# Matter power spectrum P(k) at redshift z=0
# for k=1.35487e-05 to 8.56048 h/Mpc,
# number of wavenumbers equal to 120
#    1:k (h/Mpc)              2:P (Mpc/h)^3        
       1.354866421580e-05       1.751303645465e+01 
       1.705675767713e-05       2.199232719522e+01 
       2.147318568256e-05       2.761726686789e+01 
       2.703313912795e-05       3.468085364563e+01 
       3.403270580874e-05       4.355103046089e+01 
       4.284463817474e-05       5.468978706331e+01 
       5.393820375731e-05       6.867722798201e+01 
       6.790417537660e-05       8.624169124179e+01 
       8.548629194853e-05       1.082975290860e+02 
       1.076208652941e-04       1.359924377637e+02 
       1.354866421580e-04       1.707666074415e+02 
       1.705675767713e-04       2.144265110255e+02 
       2.147318568256e-04       2.692365908113e+02 
       2.703313912795e-04       3.380325021662e+02 
       3.403270580874e-04       4.243597686819e+02 
       4.284463817474e-04       5.326413897878e+02 
       5.393820375731e-04       6.683769185128e+02 
       6.790417537660e-04       8.383735226457e+02 
       8.548629194853e-04       1.051006633393e+03 
       1.076208652941e-03       1.316501330524e+03 
       1.354866421580e-03       1.647207039786e+03 
       1.705675767713e-03       2.057797881914e+03 
       2.147318568256e-03       2.565243554143e+03 
       2.703313912795e-03       3.188563476791e+03 
       3.403270580874e-03       3.948106199601e+03 
       4.284463817474e-03       4.863687880875e+03 
       5.393820375731e-03       5.951737201061e+03 
       6.790417537660e-03       7.220638841689e+03 
       8.548629194853e-03       8.663342169843e+03 
       1.076208652941e-02       1.024836224183e+04 
       1.354866421580e-02       1.190686526835e+04 
       1.705675767713e-02       1.351878168391e+04 
       2.147318568012e-02       1.490709909625e+04 
       2.703313376490e-02       1.585100242211e+04 
       3.403093802919e-02       1.615150489614e+04 
       4.272117263134e-02       1.576456071302e+04 
       5.180991285315e-02       1.503515120264e+04 
       5.846963001739e-02       1.447661960515e+04 
       6.360406869731e-02       1.405835796957e+04 
       6.802555093030e-02       1.370269286929e+04 
       7.206613926539e-02       1.337432424849e+04 
       7.588704446191e-02       1.305513806299e+04 
       7.957915520824e-02       1.273518555853e+04 
       8.319951063157e-02       1.240897020112e+04 
       8.678690115849e-02       1.207410044951e+04 
       9.036943559848e-02       1.173071117635e+04 
       9.396857574917e-02       1.138045874443e+04 
       9.760145049768e-02       1.102647133454e+04 
       1.012822620722e-01       1.067285584113e+04 
       1.050231814537e-01       1.032408175319e+04 
       1.088349407613e-01       9.984722803235e+03 
       1.127272377496e-01       9.658529603752e+03 
       1.167090193155e-01       9.348692225196e+03 
       1.207886844930e-01       9.056285098697e+03 
       1.249742323003e-01       8.781109454912e+03 
       1.292733708394e-01       8.521146827061e+03 
       1.336935985575e-01       8.272488567203e+03 
       1.382422651259e-01       8.030262737497e+03 
       1.429266171768e-01       7.788988993523e+03 
       1.477538326866e-01       7.543532906659e+03 
       1.527310468379e-01       7.290317702239e+03 
       1.578653715527e-01       7.027917161370e+03 
       1.631639104667e-01       6.757687853439e+03 
       1.686337708308e-01       6.483698995995e+03 
       1.742820736449e-01       6.211895568663e+03 
       1.801159632079e-01       5.948804746262e+03 
       1.861426171959e-01       5.699975239475e+03 
       1.923692583305e-01       5.468467590357e+03 
       1.988031686742e-01       5.253861589132e+03 
       2.054517075667e-01       5.052490992185e+03 
       2.123223342073e-01       4.858320483643e+03 
       2.194226358752e-01       4.665013358214e+03 
       2.267603627851e-01       4.468539557409e+03 
       2.343434705766e-01       4.267866868776e+03 
       2.421801714658e-01       4.065933866637e+03 
       2.502789951361e-01       3.868857947261e+03 
       2.586488605317e-01       3.682614974524e+03 
       2.672991598578e-01       3.510061735696e+03 
       2.762398562966e-01       3.349521726986e+03 
       2.854815972477e-01       3.197001761542e+03 
       2.950358453110e-01       3.047895818954e+03 
       3.049150297962e-01       2.899208496128e+03 
       3.151327222918e-01       2.751399507968e+03 
       3.257038408273e-01       2.608056989302e+03 
       3.366448884858e-01       2.472485753861e+03 
       3.479742340675e-01       2.345748500217e+03 
       3.597124447315e-01       2.226137907042e+03 
       3.718826836387e-01       2.110117533288e+03 
       3.845111898061e-01       1.996291079893e+03 
       3.976278630822e-01       1.885637802603e+03 
       4.112669850236e-01       1.780099158373e+03 
       4.254681174760e-01       1.680451930231e+03 
       4.402772363114e-01       1.585268265409e+03 
       4.557481803954e-01       1.493089979033e+03 
       4.719445291015e-01       1.403668831173e+03 
       4.889420715289e-01       1.318068402418e+03 
       5.068321068658e-01       1.236246849955e+03 
       5.257259348535e-01       1.157415546136e+03 
       5.457610873986e-01       1.081081726090e+03 
       5.671101700415e-01       1.007331318662e+03 
       5.899937243211e-01       9.361359631932e+02 
       6.146994817772e-01       8.669667597911e+02 
       6.416121488401e-01       7.994785708101e+02 
       6.712612742778e-01       7.334985427197e+02 
       7.044016890268e-01       6.684680552710e+02 
       7.421559769450e-01       6.039041914887e+02 
       7.862829366424e-01       5.390783658747e+02 
       8.397212645903e-01       4.730036671004e+02 
       9.077814193162e-01       4.042827536499e+02 
       1.000941239827e+00       3.310958960817e+02 
       1.141171443610e+00       2.520264573180e+02 
       1.368398321537e+00       1.712320451798e+02 
       1.708531184629e+00       1.054330015033e+02 
       2.150299151472e+00       6.297492408629e+01 
       2.707060609323e+00       3.714831473389e+01 
       3.407987383512e+00       2.168180799559e+01 
       4.290401920176e+00       1.253454832497e+01 
       5.401296004120e+00       7.184424805547e+00 
       6.799828796209e+00       4.086055320831e+00 
       8.560477267397e+00       2.307505257112e+00 
