# Matter power spectrum P(k) at redshift z=0
# for k=1.11411e-05 to 8.85893 h/Mpc,
# number of wavenumbers equal to 121
#    1:k (h/Mpc)              2:P (Mpc/h)^3        
       1.114106814529e-05       4.612738099334e+01 
       1.402577380263e-05       5.757426152433e+01 
       1.765740306021e-05       7.186170262678e+01 
       2.222935341879e-05       8.969456169311e+01 
       2.798509790667e-05       1.119525343167e+02 
       3.523115090625e-05       1.397334831156e+02 
       4.435339116264e-05       1.744074398349e+02 
       5.583761123389e-05       2.176839104615e+02 
       7.029538771623e-05       2.716955934979e+02 
       8.849664992788e-05       3.391023936494e+02 
       1.114106814529e-04       4.232202769900e+02 
       1.402577380263e-04       5.281802087753e+02 
       1.765740306021e-04       6.591228829186e+02 
       2.222935341879e-04       8.224348179956e+02 
       2.798509790667e-04       1.026030056028e+03 
       3.523115090625e-04       1.279678336388e+03 
       4.435339116264e-04       1.595374483364e+03 
       5.583761123389e-04       1.987734803441e+03 
       7.029538771623e-04       2.474395473732e+03 
       8.849664992788e-04       3.076369187245e+03 
       1.114106814529e-03       3.818258968781e+03 
       1.402577380263e-03       4.728054558859e+03 
       1.765740306021e-03       5.836213554417e+03 
       2.222935341879e-03       7.174214776199e+03 
       2.798509790667e-03       8.770737304334e+03 
       3.523115090625e-03       1.064631006836e+04 
       4.435339116264e-03       1.280530547113e+04 
       5.583761123389e-03       1.522433201276e+04 
       7.029538771623e-03       1.783650285800e+04 
       8.849664992788e-03       2.051460261083e+04 
       1.114106814529e-02       2.304832859982e+04 
       1.402577380263e-02       2.512740451442e+04 
       1.765740306010e-02       2.634728135871e+04 
       2.222935292058e-02       2.627532809824e+04 
       2.798480714548e-02       2.464089231030e+04 
       3.519873606098e-02       2.167526748401e+04 
       4.346899589959e-02       1.852884661158e+04 
       5.007758110248e-02       1.666653450661e+04 
       5.494879722507e-02       1.564606143837e+04 
       5.902475701277e-02       1.495307156354e+04 
       6.269223613154e-02       1.440196547597e+04 
       6.612826778141e-02       1.390924527099e+04 
       6.942846395726e-02       1.343270642757e+04 
       7.265098992270e-02       1.294740603141e+04 
       7.583447200740e-02       1.244086448758e+04 
       7.900637018844e-02       1.190970938576e+04 
       8.218731944653e-02       1.135635373346e+04 
       8.539356631036e-02       1.078830250805e+04 
       8.863842407337e-02       1.021671885985e+04 
       9.193318642030e-02       9.654407607848e+03 
       9.528772489740e-02       9.115324866291e+03 
       9.871089298938e-02       8.612099282548e+03 
       1.022108071032e-01       8.154846635866e+03 
       1.057950464673e-01       7.750552129090e+03 
       1.094707979876e-01       7.401171527659e+03 
       1.132449627333e-01       7.104183237403e+03 
       1.171242350428e-01       6.851769623313e+03 
       1.211151616990e-01       6.632006400809e+03 
       1.252241863578e-01       6.429777266837e+03 
       1.294576829462e-01       6.228412037075e+03 
       1.338219807745e-01       6.012543950582e+03 
       1.383233834635e-01       5.770967514749e+03 
       1.429681833593e-01       5.499360711281e+03 
       1.477626728218e-01       5.201551520117e+03 
       1.527131535876e-01       4.889122529238e+03 
       1.578259452849e-01       4.578559591581e+03 
       1.631073941027e-01       4.287986814275e+03 
       1.685638825675e-01       4.031991657253e+03 
       1.742018413515e-01       3.817889934098e+03 
       1.800277640159e-01       3.643987990646e+03 
       1.860482255817e-01       3.499519389036e+03 
       1.922699058101e-01       3.368717872443e+03 
       1.986996180724e-01       3.232836284823e+03 
       2.053443446934e-01       3.078037187595e+03 
       2.122112796677e-01       2.901966955760e+03 
       2.193078796859e-01       2.714471525285e+03 
       2.266419244717e-01       2.531512041279e+03 
       2.342215875398e-01       2.367960051490e+03 
       2.420555186432e-01       2.231819226657e+03 
       2.501529394159e-01       2.121143724953e+03 
       2.585237540467e-01       2.023912926822e+03 
       2.671786772692e-01       1.925620695080e+03 
       2.761293825609e-01       1.817439472975e+03 
       2.853886742548e-01       1.700574057660e+03 
       2.949706883305e-01       1.585426502362e+03 
       3.048911280725e-01       1.483448141979e+03 
       3.151675426518e-01       1.397767447735e+03 
       3.258196591885e-01       1.322634452199e+03 
       3.368697822112e-01       1.248485695975e+03 
       3.483432789893e-01       1.170124362870e+03 
       3.602691754878e-01       1.091053807798e+03 
       3.726808964304e-01       1.018117070847e+03 
       3.856171953099e-01       9.543978722136e+02 
       3.991233379325e-01       8.957735237666e+02 
       4.132526290219e-01       8.372369054078e+02 
       4.280684100388e-01       7.786051749813e+02 
       4.436467150937e-01       7.236457672770e+02 
       4.600798631105e-01       6.735477506709e+02 
       4.774814098620e-01       6.257843104943e+02 
       4.959931217619e-01       5.785208834640e+02 
       5.157950357293e-01       5.333940903323e+02 
       5.371203730364e-01       4.911304118799e+02 
       5.602783539845e-01       4.498601044046e+02 
       5.856903899555e-01       4.097912644365e+02 
       6.139499828762e-01       3.712474583030e+02 
       6.459269261001e-01       3.332507363509e+02 
       6.829595420981e-01       2.958656148379e+02 
       7.272346118685e-01       2.583920577718e+02 
       7.825989814674e-01       2.203058867263e+02 
       8.564295997462e-01       1.807307634323e+02 
       9.640246101726e-01       1.389167811252e+02 
       1.135898883501e+00       9.590627741795e+01 
       1.405478573467e+00       5.875338987575e+01 
       1.767610956490e+00       3.430650196992e+01 
       2.225263140373e+00       1.978876690316e+01 
       2.801440236877e+00       1.131315910828e+01 
       3.526804303797e+00       6.415567609527e+00 
       4.439983560475e+00       3.611803960295e+00 
       5.589608132230e+00       2.019910565547e+00 
       7.036899719636e+00       1.122897121589e+00 
       8.858931877297e+00       6.207579819398e-01 
