# Matter power spectrum P(k) at redshift z=0
# for k=1.24601e-05 to 7.87083 h/Mpc,
# number of wavenumbers equal to 120
#    1:k (h/Mpc)              2:P (Mpc/h)^3        
       1.246011309959e-05       2.874067161421e+01 
       1.568635301490e-05       3.590263016774e+01 
       1.974794842884e-05       4.484928617919e+01 
       2.486119410786e-05       5.602530939016e+01 
       3.129838902994e-05       6.998619210338e+01 
       3.940233729801e-05       8.742571735910e+01 
       4.960460370855e-05       1.092104504441e+02 
       6.244849615067e-05       1.364226022180e+02 
       7.861799873241e-05       1.704134370384e+02 
       9.897419642863e-05       2.128698128200e+02 
       1.246011309959e-04       2.658966253629e+02 
       1.568635301490e-04       3.321187811803e+02 
       1.974794842884e-04       4.148064660135e+02 
       2.486119410786e-04       5.180276160623e+02 
       3.129838902994e-04       6.468309065690e+02 
       3.940233729801e-04       8.074608226717e+02 
       4.960460370855e-04       1.007602997096e+03 
       6.244849615067e-04       1.256653005144e+03 
       7.861799873241e-04       1.565995375171e+03 
       9.897419642863e-04       1.949267762588e+03 
       1.246011309959e-03       2.422549696231e+03 
       1.568635301490e-03       3.004340422922e+03 
       1.974794842884e-03       3.715144286732e+03 
       2.486119410786e-03       4.576361971478e+03 
       3.129838902994e-03       5.608613123083e+03 
       3.940233729801e-03       6.828254698390e+03 
       4.960460370855e-03       8.242566272180e+03 
       6.244849615067e-03       9.842788327020e+03 
       7.861799873241e-03       1.159440782568e+04 
       9.897419642863e-03       1.342686231376e+04 
       1.246011309959e-02       1.522060412956e+04 
       1.568635301490e-02       1.679680916399e+04 
       1.974794842850e-02       1.791917020088e+04 
       2.486119294181e-02       1.832910927766e+04 
       3.129782724464e-02       1.784246346183e+04 
       3.934877362935e-02       1.652070832881e+04 
       4.834521670544e-02       1.493111304462e+04 
       5.528792105841e-02       1.387817782365e+04 
       6.047865338577e-02       1.320104042654e+04 
       6.486610498768e-02       1.267945457608e+04 
       6.883526877344e-02       1.222901605140e+04 
       7.256587659247e-02       1.181112295054e+04 
       7.615642843372e-02       1.140545894741e+04 
       7.966748144731e-02       1.100210321040e+04 
       8.313957392018e-02       1.059573127756e+04 
       8.660171034307e-02       1.018599796473e+04 
       9.007580269340e-02       9.774655965810e+03 
       9.357918135451e-02       9.365648303137e+03 
       9.712610350816e-02       8.964058099379e+03 
       1.007287046308e-01       8.575555285226e+03 
       1.043976231499e-01       8.205430298634e+03 
       1.081424242657e-01       7.858105307433e+03 
       1.119718954469e-01       7.536495783624e+03 
       1.158942571081e-01       7.241474015019e+03 
       1.199173155377e-01       6.971786937440e+03 
       1.240485754631e-01       6.723950769151e+03 
       1.282953237487e-01       6.492494403054e+03 
       1.326646920393e-01       6.270836722417e+03 
       1.371637038035e-01       6.051796274653e+03 
       1.417993096990e-01       5.829031501110e+03 
       1.465784141651e-01       5.598049887816e+03 
       1.515078954784e-01       5.357361581235e+03 
       1.565946210562e-01       5.108730990352e+03 
       1.618454594949e-01       4.857273340497e+03 
       1.672672906367e-01       4.610113553624e+03 
       1.728670148310e-01       4.374659523172e+03 
       1.786515624760e-01       4.157063234902e+03 
       1.846279048781e-01       3.960264408681e+03 
       1.908030674340e-01       3.783243993723e+03 
       1.971841461206e-01       3.621222289364e+03 
       2.037783282647e-01       3.467158186848e+03 
       2.105929185562e-01       3.313745800941e+03 
       2.176353712631e-01       3.156273534810e+03 
       2.249133296162e-01       2.994032045279e+03 
       2.324346733470e-01       2.830439874458e+03 
       2.402075754075e-01       2.671861735584e+03 
       2.482405689758e-01       2.524712863686e+03 
       2.565426259721e-01       2.391706352258e+03 
       2.651232484949e-01       2.270749629025e+03 
       2.739925748536e-01       2.157276456567e+03 
       2.831615022458e-01       2.046733424986e+03 
       2.926418286350e-01       1.936164409252e+03 
       3.024464170709e-01       1.825907284384e+03 
       3.125893865991e-01       1.719529585666e+03 
       3.230863351122e-01       1.620340081772e+03 
       3.339546010839e-01       1.529173308089e+03 
       3.452135732334e-01       1.444296160861e+03 
       3.568850599836e-01       1.362393777498e+03 
       3.689937343605e-01       1.281998225527e+03 
       3.815676751257e-01       1.204205147822e+03 
       3.946390320259e-01       1.130627412376e+03 
       4.082448529226e-01       1.062040175448e+03 
       4.224281245740e-01       9.970882448909e+02 
       4.372390989863e-01       9.344971584023e+02 
       4.527370067629e-01       8.740368851882e+02 
       4.689923029186e-01       8.166495587557e+02 
       4.860896577173e-01       7.622763183776e+02 
       5.041320096542e-01       7.102628938400e+02 
       5.232461647909e-01       6.602189501606e+02 
       5.435907011828e-01       6.122435059993e+02 
       5.653674024528e-01       5.663000831832e+02 
       5.888382612721e-01       5.220176350804e+02 
       6.143515846581e-01       4.791366681423e+02 
       6.423835801310e-01       4.375928531663e+02 
       6.736075217594e-01       3.970155729805e+02 
       7.090147701099e-01       3.571308956240e+02 
       7.501395679051e-01       3.175289284016e+02 
       7.995068408938e-01       2.776989473636e+02 
       8.615969775382e-01       2.369005624272e+02 
       9.450833578358e-01       1.941862046410e+02 
       1.068043773851e+00       1.487350464176e+02 
       1.265695419633e+00       1.020405905003e+02 
       1.571513172584e+00       6.248305219059e+01 
       1.977077290763e+00       3.671530045360e+01 
       2.488975483028e+00       2.131410387625e+01 
       3.133434443763e+00       1.225623438089e+01 
       3.944760247432e+00       6.987440862551e+00 
       4.966158918928e+00       3.952884948296e+00 
       6.252023662047e+00       2.220551431426e+00 
       7.870831463289e+00       1.239518005602e+00 
