# Matter power spectrum P(k) at redshift z=0
# for k=1.29064e-05 to 8.15171 h/Mpc,
# number of wavenumbers equal to 120
#    1:k (h/Mpc)              2:P (Mpc/h)^3        
       1.290641572869e-05       3.820600945311e+01 
       1.624821473603e-05       4.743744618708e+01 
       2.045529042747e-05       5.889938291973e+01 
       2.575168492477e-05       7.313069387573e+01 
       3.241945054831e-05       9.080045519654e+01 
       4.081367013168e-05       1.127393167355e+02 
       5.138136647735e-05       1.399784663775e+02 
       6.468530795105e-05       1.737979423021e+02 
       8.143397794931e-05       2.157864585820e+02 
       1.025193042239e-04       2.679153852821e+02 
       1.290641572869e-04       3.326300623654e+02 
       1.624821473603e-04       4.129620659120e+02 
       2.045529042747e-04       5.126664950419e+02 
       2.575168492477e-04       6.363884462660e+02 
       3.241945054831e-04       7.898622751385e+02 
       4.081367013168e-04       9.801456811720e+02 
       5.138136647735e-04       1.215887358558e+03 
       6.468530795105e-04       1.507622558326e+03 
       8.143397794931e-04       1.868084401113e+03 
       1.025193042239e-03       2.312508085930e+03 
       1.290641572869e-03       2.858780619812e+03 
       1.624821473603e-03       3.527399056893e+03 
       2.045529042747e-03       4.341632390438e+03 
       2.575168492477e-03       5.325970325615e+03 
       3.241945054831e-03       6.504347953569e+03 
       4.081367013168e-03       7.896741231801e+03 
       5.138136647735e-03       9.513915309934e+03 
       6.468530795105e-03       1.134942500175e+04 
       8.143397794931e-03       1.336738575626e+04 
       1.025193042239e-02       1.548877894289e+04 
       1.290641572869e-02       1.756948001696e+04 
       1.624821473603e-02       1.938245534286e+04 
       2.045529042743e-02       2.060697878002e+04 
       2.575168468550e-02       2.086450551113e+04 
       3.241927541237e-02       1.985320526894e+04 
       4.079019142985e-02       1.762608794390e+04 
       5.062224773630e-02       1.498788825090e+04 
       5.884880070259e-02       1.330126871128e+04 
       6.482648783615e-02       1.240728780696e+04 
       6.976600068886e-02       1.183129816326e+04 
       7.418103190750e-02       1.139745939933e+04 
       7.830136844776e-02       1.102843179594e+04 
       8.224895962186e-02       1.068279337181e+04 
       8.609706720619e-02       1.033526777559e+04 
       8.989388351838e-02       9.971600196673e+03 
       9.367341157259e-02       9.584486045290e+03 
       9.746104404492e-02       9.172593112763e+03 
       1.012766674610e-01       8.739536444392e+03 
       1.051365034747e-01       8.292288244986e+03 
       1.090542584642e-01       7.841196764338e+03 
       1.130418718904e-01       7.397825949370e+03 
       1.171100205155e-01       6.974148802636e+03 
       1.212684679311e-01       6.581797834117e+03 
       1.255263125898e-01       6.228787429510e+03 
       1.298921671769e-01       5.921285939353e+03 
       1.343742902650e-01       5.660576486947e+03 
       1.389806840119e-01       5.444070748445e+03 
       1.437191671946e-01       5.264653944330e+03 
       1.485974300270e-01       5.111261688068e+03 
       1.536230753652e-01       4.969994930439e+03 
       1.588036496878e-01       4.825793036610e+03 
       1.641466664335e-01       4.664865177010e+03 
       1.696596237387e-01       4.477735229723e+03 
       1.753500182629e-01       4.261247770035e+03 
       1.812253565530e-01       4.019852102725e+03 
       1.872931652475e-01       3.765336274769e+03 
       1.935610013210e-01       3.513919284249e+03 
       2.000364635124e-01       3.282575229102e+03 
       2.067272060403e-01       3.084284130301e+03 
       2.136409556848e-01       2.924990258030e+03 
       2.207855333006e-01       2.802295364994e+03 
       2.281688808133e-01       2.704332996537e+03 
       2.357990947477e-01       2.613295781491e+03 
       2.436844673396e-01       2.511901771158e+03 
       2.518335362993e-01       2.389375945194e+03 
       2.602551443371e-01       2.245297383196e+03 
       2.689585096310e-01       2.090088340866e+03 
       2.779533085401e-01       1.940891201582e+03 
       2.872497720477e-01       1.813265870758e+03 
       2.968587976900e-01       1.713632148356e+03 
       3.067920791001e-01       1.637198249634e+03 
       3.170622558169e-01       1.570073663568e+03 
       3.276830867065e-01       1.496306028996e+03 
       3.386696512734e-01       1.408104752072e+03 
       3.500385843684e-01       1.310447771620e+03 
       3.618083514328e-01       1.216550996997e+03 
       3.739995735688e-01       1.138348639243e+03 
       3.866354146049e-01       1.077211033344e+03 
       3.997420461787e-01       1.024057814874e+03 
       4.133492120940e-01       9.673026328389e+02 
       4.274909203914e-01       9.029256344396e+02 
       4.422063015590e-01       8.378513880154e+02 
       4.575406854101e-01       7.813147535783e+02 
       4.735469693632e-01       7.348929143745e+02 
       4.902873803399e-01       6.913400636623e+02 
       5.078357762876e-01       6.444488518164e+02 
       5.262806997339e-01       5.965503970049e+02 
       5.457294986996e-01       5.539423767232e+02 
       5.663139937913e-01       5.166688306306e+02 
       5.881984371426e-01       4.790658101182e+02 
       6.115909578280e-01       4.406606472061e+02 
       6.367604698112e-01       4.057069772290e+02 
       6.640624318207e-01       3.728717035141e+02 
       6.939795182946e-01       3.394984792481e+02 
       7.271885590683e-01       3.078722096610e+02 
       7.646762285335e-01       2.769574989097e+02 
       8.079508390607e-01       2.461766401068e+02 
       8.594571864158e-01       2.155972569843e+02 
       9.234541075893e-01       1.845272774046e+02 
       1.008020123560e+00       1.522779875493e+02 
       1.129789646458e+00       1.182263529518e+02 
       1.322626711442e+00       8.287981392451e+01 
       1.629049638087e+00       5.134670169113e+01 
       2.047663552552e+00       3.003026609715e+01 
       2.577796911176e+00       1.731981322004e+01 
       3.245253826659e+00       9.895338187922e+00 
       4.085532509997e+00       5.605743258370e+00 
       5.143380697546e+00       3.151445156966e+00 
       6.475132662672e+00       1.759249193879e+00 
       8.151709053777e+00       9.759869625857e-01 
