# Matter power spectrum P(k) at redshift z=0
# for k=1.09636e-05 to 8.71911 h/Mpc,
# number of wavenumbers equal to 121
#    1:k (h/Mpc)              2:P (Mpc/h)^3        
       1.096362153449e-05       3.047479335357e+01 
       1.380238175507e-05       3.825869907178e+01 
       1.737616913474e-05       4.803072866083e+01 
       2.187530088336e-05       6.029864008410e+01 
       2.753937217270e-05       7.569982643554e+01 
       3.467001545307e-05       9.503436999026e+01 
       4.364696348117e-05       1.193064872866e+02 
       5.494827147410e-05       1.497764528342e+02 
       6.917577529290e-05       1.880255569546e+02 
       8.708714139680e-05       2.360372363501e+02 
       1.096362153449e-04       2.962980687424e+02 
       1.380238175507e-04       3.719229078649e+02 
       1.737616913474e-04       4.668087493615e+02 
       2.187530088336e-04       5.858217161116e+02 
       2.753937217270e-04       7.350202215716e+02 
       3.467001545307e-04       9.219141325146e+02 
       4.364696348117e-04       1.155754001973e+03 
       5.494827147410e-04       1.447836152889e+03 
       6.917577529290e-04       1.811799916220e+03 
       8.708714139680e-04       2.263877716502e+03 
       1.096362153449e-03       2.823010293040e+03 
       1.380238175507e-03       3.510462962105e+03 
       1.737616913474e-03       4.349367834196e+03 
       2.187530088336e-03       5.362738523102e+03 
       2.753937217270e-03       6.570459191319e+03 
       3.467001545307e-03       7.984575224065e+03 
       4.364696348117e-03       9.602703697864e+03 
       5.494827147410e-03       1.139859545225e+04 
       6.917577529290e-03       1.330971008158e+04 
       8.708714139680e-03       1.522456949287e+04 
       1.096362153449e-02       1.696544542127e+04 
       1.380238175507e-02       1.827352206380e+04 
       1.737616913474e-02       1.881891413841e+04 
       2.187530083825e-02       1.825167555459e+04 
       2.753932379070e-02       1.636807711078e+04 
       3.466116137262e-02       1.340577953267e+04 
       4.327007525444e-02       1.032958348096e+04 
       5.109323724344e-02       8.514551121256e+03 
       5.669685535223e-02       7.732104700905e+03 
       6.122399335897e-02       7.319050440306e+03 
       6.522253163586e-02       7.051948623589e+03 
       6.892868451210e-02       6.841043471177e+03 
       7.246409580864e-02       6.640883624130e+03 
       7.590029107130e-02       6.426066955719e+03 
       7.928357012371e-02       6.182687030374e+03 
       8.264618866994e-02       5.904355245307e+03 
       8.601198413919e-02       5.592664902842e+03 
       8.939946051779e-02       5.252924028016e+03 
       9.282359709821e-02       4.896217455575e+03 
       9.629696726104e-02       4.534972877796e+03 
       9.983046121706e-02       4.183229731414e+03 
       1.034337698942e-01       3.854212904872e+03 
       1.071157186229e-01       3.559374682411e+03 
       1.108845029142e-01       3.306761774692e+03 
       1.147478583868e-01       3.100897518429e+03 
       1.187131851615e-01       2.941954670924e+03 
       1.227876399980e-01       2.826174125479e+03 
       1.269782050900e-01       2.745672444900e+03 
       1.312917396719e-01       2.688978352358e+03 
       1.357350188054e-01       2.641764301095e+03 
       1.403147625398e-01       2.588711610028e+03 
       1.450376578617e-01       2.515754380446e+03 
       1.499103753340e-01       2.413504089072e+03 
       1.549395819748e-01       2.279460044606e+03 
       1.601319517055e-01       2.118919398260e+03 
       1.654941745431e-01       1.944730520407e+03 
       1.710329656232e-01       1.773381459997e+03 
       1.767550750760e-01       1.621098689099e+03 
       1.826672997433e-01       1.499443792630e+03 
       1.887764977010e-01       1.412867917077e+03 
       1.950896065343e-01       1.358283277839e+03 
       2.016136663058e-01       1.324882353497e+03 
       2.083558481466e-01       1.295937584895e+03 
       2.153234894062e-01       1.255175926060e+03 
       2.225241363068e-01       1.192627734759e+03 
       2.299655950787e-01       1.108777953955e+03 
       2.376559926134e-01       1.013606377257e+03 
       2.456038477659e-01       9.226029678423e+02 
       2.538181545899e-01       8.494968199170e+02 
       2.623084790131e-01       7.995985054006e+02 
       2.710850707699e-01       7.683091014268e+02 
       2.801589928468e-01       7.437365305526e+02 
       2.895422712783e-01       7.123738747699e+02 
       2.992480689149e-01       6.673053822487e+02 
       3.092908878180e-01       6.130703323011e+02 
       3.196868063110e-01       5.609110385618e+02 
       3.304537585239e-01       5.204105935916e+02 
       3.416118666846e-01       4.928824633580e+02 
       3.531838396420e-01       4.709839334012e+02 
       3.651954554838e-01       4.455997482030e+02 
       3.776761521014e-01       4.134035534937e+02 
       3.906597578694e-01       3.797503121158e+02 
       4.041854062981e-01       3.517866608162e+02 
       4.182986952329e-01       3.308405808217e+02 
       4.330531754595e-01       3.117126204485e+02 
       4.485122895248e-01       2.898210658106e+02 
       4.647519358572e-01       2.664945957152e+02 
       4.818639170150e-01       2.463181378585e+02 
       4.999606632534e-01       2.296570439576e+02 
       5.191818374249e-01       2.126847222717e+02 
       5.397037863813e-01       1.947675590427e+02 
       5.617534247723e-01       1.787621728300e+02 
       5.856292508528e-01       1.641395289828e+02 
       6.117342786627e-01       1.490660186122e+02 
       6.406297659280e-01       1.348445077683e+02 
       6.731271133286e-01       1.211883602290e+02 
       7.104540633736e-01       1.075440021015e+02 
       7.545756319886e-01       9.419570348672e+01 
       8.088623386505e-01       8.070984119523e+01 
       8.795958247262e-01       6.687584994340e+01 
       9.795334663670e-01       5.241482659109e+01 
       1.135185996516e+00       3.738659089052e+01 
       1.386122109829e+00       2.349594700571e+01 
       1.739795652432e+00       1.372708425356e+01 
       2.190142313805e+00       7.894898405719e+00 
       2.757225149559e+00       4.503681693534e+00 
       3.471140806307e+00       2.550564961659e+00 
       4.369907368976e+00       1.435011326701e+00 
       5.501387433991e+00       8.024492888118e-01 
       6.925836440776e+00       4.462773649157e-01 
       8.719111493223e+00       2.469430982648e-01 
