# Matter power spectrum P(k) at redshift z=0
# for k=1.30497e-05 to 6.54908 h/Mpc,
# number of wavenumbers equal to 119
#    1:k (h/Mpc)              2:P (Mpc/h)^3        
       1.304968469855e-05       2.530946905105e+01 
       1.642857968291e-05       3.154225681219e+01 
       2.068235644250e-05       3.930996288290e+01 
       2.603754410125e-05       4.899047537371e+01 
       3.277932592977e-05       6.105489738916e+01 
       4.126672639448e-05       7.609019104953e+01 
       5.195173051956e-05       9.482782521458e+01 
       6.540335373776e-05       1.181792370973e+02 
       8.233794403703e-05       1.472800404651e+02 
       1.036573301031e-04       1.835449201877e+02 
       1.304968469855e-04       2.287357922359e+02 
       1.642857968291e-04       2.850462291809e+02 
       2.068235644250e-04       3.552055948370e+02 
       2.603754410125e-04       4.426068866924e+02 
       3.277932592977e-04       5.514622830610e+02 
       4.126672639448e-04       6.869902760382e+02 
       5.195173051956e-04       8.556370536562e+02 
       6.540335373776e-04       1.065332945921e+03 
       8.233794403703e-04       1.325781631212e+03 
       1.036573301031e-03       1.648773185082e+03 
       1.304968469855e-03       2.048492778984e+03 
       1.642857968291e-03       2.541755639350e+03 
       2.068235644250e-03       3.148064814096e+03 
       2.603754410125e-03       3.889194020212e+03 
       3.277932592977e-03       4.788738172071e+03 
       4.126672639448e-03       5.870105952262e+03 
       5.195173051956e-03       7.153527591879e+03 
       6.540335373776e-03       8.651171458738e+03 
       8.233794403703e-03       1.035928399168e+04 
       1.036573301031e-02       1.224869106900e+04 
       1.304968469855e-02       1.424973652081e+04 
       1.642857968291e-02       1.623977003053e+04 
       2.068235642602e-02       1.803319807876e+04 
       2.603752166682e-02       1.939546980997e+04 
       3.277433975628e-02       2.010594737567e+04 
       4.101610564424e-02       2.008082677136e+04 
       4.889258393475e-02       1.962386382500e+04 
       5.453185586174e-02       1.918495758887e+04 
       5.902025536167e-02       1.879758074779e+04 
       6.295329647046e-02       1.843416957825e+04 
       6.658243434762e-02       1.807830756794e+04 
       7.003470369197e-02       1.772107071390e+04 
       7.338378801715e-02       1.735728088043e+04 
       7.667690381324e-02       1.698465954967e+04 
       7.994668567464e-02       1.660233512477e+04 
       8.321709505461e-02       1.621166449961e+04 
       8.650663062341e-02       1.581456015746e+04 
       8.983019704822e-02       1.541389283989e+04 
       9.320025419041e-02       1.501328248767e+04 
       9.662755596556e-02       1.461602705946e+04 
       1.001216430788e-01       1.422562354429e+04 
       1.036911817081e-01       1.384447786070e+04 
       1.073442021770e-01       1.347418109169e+04 
       1.110882705974e-01       1.311485867452e+04 
       1.149306143128e-01       1.276630369362e+04 
       1.188782146993e-01       1.242529089349e+04 
       1.229378764022e-01       1.208880983406e+04 
       1.271162792542e-01       1.175321255199e+04 
       1.314200172909e-01       1.141472722534e+04 
       1.358556280828e-01       1.107073249967e+04 
       1.404296148080e-01       1.071992819803e+04 
       1.451484629594e-01       1.036306440080e+04 
       1.500186532318e-01       1.000296727266e+04 
       1.550466718980e-01       9.643971794117e+03 
       1.602390198349e-01       9.291146982227e+03 
       1.656022212597e-01       8.948889086712e+03 
       1.711428331802e-01       8.620331947484e+03 
       1.768674565200e-01       8.305912156802e+03 
       1.827827498593e-01       8.003549362108e+03 
       1.888954467149e-01       7.709449131219e+03 
       1.952123772707e-01       7.419041713907e+03 
       2.017404954684e-01       7.129140246733e+03 
       2.084869123625e-01       6.838674260077e+03 
       2.154589366593e-01       6.549556886139e+03 
       2.226641233848e-01       6.265740716296e+03 
       2.301103316782e-01       5.991446852203e+03 
       2.378057927994e-01       5.729780027653e+03 
       2.457591895774e-01       5.480677223518e+03 
       2.539797487323e-01       5.241080046218e+03 
       2.624773477981e-01       5.007491796954e+03 
       2.712626387795e-01       4.778282987678e+03 
       2.803471912237e-01       4.553511079385e+03 
       2.897436581250e-01       4.334689617923e+03 
       2.994659690528e-01       4.124409244217e+03 
       3.095295561799e-01       3.923598510926e+03 
       3.199516205947e-01       3.731213297230e+03 
       3.307514485441e-01       3.545534867873e+03 
       3.419507902878e-01       3.365100614391e+03 
       3.535743183457e-01       3.190049479771e+03 
       3.656501875234e-01       3.021690041128e+03 
       3.782107268667e-01       2.860270335623e+03 
       3.912933045983e-01       2.705318989356e+03 
       4.049414226378e-01       2.555654539584e+03 
       4.192061198667e-01       2.410953997435e+03 
       4.341477965989e-01       2.271421715187e+03 
       4.498386228814e-01       2.137227886614e+03 
       4.663657704372e-01       2.007671993352e+03 
       4.838358296891e-01       1.882307890786e+03 
       5.023809700523e-01       1.760952972276e+03 
       5.221677293929e-01       1.643359742405e+03 
       5.434098825568e-01       1.529086833432e+03 
       5.663878460528e-01       1.417656588196e+03 
       5.914789511895e-01       1.308626973486e+03 
       6.192065789488e-01       1.201418487875e+03 
       6.503236931869e-01       1.095283681555e+03 
       6.859628288992e-01       9.892836008085e+02 
       7.279232967845e-01       8.821169900064e+02 
       7.792635579966e-01       7.719848469246e+02 
       8.456239069300e-01       6.563279351706e+02 
       9.383532643131e-01       5.318990583704e+02 
       1.081186137858e+00       3.970497365997e+02 
       1.312512452293e+00       2.633102515572e+02 
       1.645224453901e+00       1.608701315669e+02 
       2.071000691017e+00       9.602657445629e+01 
       2.607234062304e+00       5.658612856401e+01 
       3.282313214219e+00       3.296916288564e+01 
       4.132187514847e+00       1.901510603098e+01 
       5.202115868740e+00       1.086753707605e+01 
       6.549075862254e+00       6.160080091652e+00 
