# Matter power spectrum P(k) at redshift z=0
# for k=1.11445e-05 to 7.03966 h/Mpc,
# number of wavenumbers equal to 120
#    1:k (h/Mpc)              2:P (Mpc/h)^3        
       1.114445770802e-05       2.818551376429e+01 
       1.403004100929e-05       3.523347980197e+01 
       1.766277515510e-05       4.404380783601e+01 
       2.223611648557e-05       5.505714864957e+01 
       2.799361210330e-05       6.882432308747e+01 
       3.524186964475e-05       8.603380805058e+01 
       4.436688525491e-05       1.075461088266e+02 
       5.585459928956e-05       1.344366443473e+02 
       7.031677441121e-05       1.680492248104e+02 
       8.852357418167e-05       2.100626636863e+02 
       1.114445770802e-04       2.625735368069e+02 
       1.403004100929e-04       3.281986859283e+02 
       1.766277515510e-04       4.102014860638e+02 
       2.223611648557e-04       5.126461250930e+02 
       2.799361210330e-04       6.405837897761e+02 
       3.524186964475e-04       8.002733131745e+02 
       4.436688525491e-04       9.994360165236e+02 
       5.585459928956e-04       1.247540191364e+03 
       7.031677441121e-04       1.556104887990e+03 
       8.852357418167e-04       1.939002351248e+03 
       1.114445770802e-03       2.412707492464e+03 
       1.403004100929e-03       2.996105717438e+03 
       1.766277515510e-03       3.710843121884e+03 
       2.223611648557e-03       4.579909527606e+03 
       2.799361210330e-03       5.626028726969e+03 
       3.524186964475e-03       6.868557120331e+03 
       4.436688525491e-03       8.318616373737e+03 
       5.585459928956e-03       9.971539405804e+03 
       7.031677441121e-03       1.179585945965e+04 
       8.852357418167e-03       1.372010670570e+04 
       1.114445770802e-02       1.561423342510e+04 
       1.403004100929e-02       1.727081152896e+04 
       1.766277515484e-02       1.840299766592e+04 
       2.223611552646e-02       1.867996957132e+04 
       2.799313981906e-02       1.785936650815e+04 
       3.519602940824e-02       1.604051671989e+04 
       4.327038910175e-02       1.402153612409e+04 
       4.952475042717e-02       1.281256041423e+04 
       5.419295796433e-02       1.212217454775e+04 
       5.813429700229e-02       1.164368526244e+04 
       6.169771957779e-02       1.126036396571e+04 
       6.504576483262e-02       1.091792729370e+04 
       6.826736302709e-02       1.058637124449e+04 
       7.141712253750e-02       1.024834964413e+04 
       7.453156609331e-02       9.893398776664e+03 
       7.763680603070e-02       9.518005336955e+03 
       8.075255740438e-02       9.122579945256e+03 
       8.389440494901e-02       8.711463547030e+03 
       8.707516401508e-02       8.291985249177e+03 
       9.030573858699e-02       7.873378808679e+03 
       9.359568432156e-02       7.465871714339e+03 
       9.695359042298e-02       7.079657645984e+03 
       1.003873458119e-01       6.723364058579e+03 
       1.039043288477e-01       6.403723165324e+03 
       1.075115450181e-01       6.123910772958e+03 
       1.112157282735e-01       5.883856776219e+03 
       1.150234163664e-01       5.679534024801e+03 
       1.189410072354e-01       5.503224459850e+03 
       1.229748013471e-01       5.344100884140e+03 
       1.271310335264e-01       5.189433972097e+03 
       1.314158968918e-01       5.026781786099e+03 
       1.358355609045e-01       4.845787959821e+03 
       1.403961851380e-01       4.640811304263e+03 
       1.451039301042e-01       4.412353913407e+03 
       1.499649662977e-01       4.167246048434e+03 
       1.549854825052e-01       3.917688743674e+03 
       1.601716943547e-01       3.678143239394e+03 
       1.655298540360e-01       3.462172693337e+03 
       1.710662620926e-01       3.278352634831e+03 
       1.767872821705e-01       3.128260809027e+03 
       1.826993595950e-01       3.006298597438e+03 
       1.888090446392e-01       2.900029460957e+03 
       1.951230213457e-01       2.793146409813e+03 
       2.016481427671e-01       2.672478939650e+03 
       2.083914735090e-01       2.533036313243e+03 
       2.153603404965e-01       2.379570035131e+03 
       2.225623929540e-01       2.223986194458e+03 
       2.300056726936e-01       2.080748652137e+03 
       2.376986959768e-01       1.960265423636e+03 
       2.456505484460e-01       1.863490260992e+03 
       2.538709949611e-01       1.782073019861e+03 
       2.623706066262e-01       1.702975579274e+03 
       2.711609079044e-01       1.615240214943e+03 
       2.802545475306e-01       1.516881900615e+03 
       2.896654980068e-01       1.416157961224e+03 
       2.994092898850e-01       1.324394478430e+03 
       3.095032889276e-01       1.247931927991e+03 
       3.199670267495e-01       1.183664335479e+03 
       3.308225989273e-01       1.122035755613e+03 
       3.420951491613e-01       1.055918556052e+03 
       3.538134644054e-01       9.861485631446e+02 
       3.660107147113e-01       9.201470575280e+02 
       3.787253840367e-01       8.630706181912e+02 
       3.920024562596e-01       8.125565385886e+02 
       4.058949469800e-01       7.622628975464e+02 
       4.204659109937e-01       7.102154551406e+02 
       4.357911151801e-01       6.602105790584e+02 
       4.519626598113e-01       6.155112093610e+02 
       4.690939802706e-01       5.736943274332e+02 
       4.873269058666e-01       5.313830614754e+02 
       5.068418670119e-01       4.903184754680e+02 
       5.278730693665e-01       4.524208770479e+02 
       5.507317808332e-01       4.153621600893e+02 
       5.758434100785e-01       3.787853582463e+02 
       6.038091403388e-01       3.438399723868e+02 
       6.355136977550e-01       3.091020516472e+02 
       6.723253736543e-01       2.748367120798e+02 
       7.164941114742e-01       2.402704943464e+02 
       7.720083380807e-01       2.049718135710e+02 
       8.465807017441e-01       1.680377181129e+02 
       9.562781849227e-01       1.287725791970e+02 
       1.132495714455e+00       8.842862633422e+01 
       1.405604217577e+00       5.416818076419e+01 
       1.768294780348e+00       3.182311487806e+01 
       2.226134655803e+00       1.847238330114e+01 
       2.802537448059e+00       1.062213045327e+01 
       3.528185610853e+00       6.056575562665e+00 
       4.441722523030e+00       3.427032591166e+00 
       5.591797356381e+00       1.925712633471e+00 
       7.039655789551e+00       1.075271975730e+00 
