# Matter power spectrum P(k) at redshift z=0
# for k=1.7433e-05 to 11.0108 h/Mpc,
# number of wavenumbers equal to 120
#    1:k (h/Mpc)              2:P (Mpc/h)^3        
       1.743304841017e-05       7.018770297595e+00 
       2.194690764860e-05       8.801783778927e+00 
       2.762951974912e-05       1.103774056526e+01 
       3.478350452784e-05       1.384169854063e+01 
       4.378983776135e-05       1.735793733049e+01 
       5.512813953611e-05       2.176737743257e+01 
       6.940221576695e-05       2.729687441578e+01 
       8.737221306383e-05       3.423086554389e+01 
       1.099950993108e-04       4.292594770867e+01 
       1.384756256951e-04       5.382911578098e+01 
       1.743304841017e-04       6.750053860854e+01 
       2.194690764860e-04       8.464194154679e+01 
       2.762951974912e-04       1.061318468233e+02 
       3.478350452784e-04       1.330690900002e+02 
       4.378983776135e-04       1.668261207163e+02 
       5.512813953611e-04       2.091135179017e+02 
       6.940221576695e-04       2.620568267119e+02 
       8.737221306383e-04       3.282861843159e+02 
       1.099950993108e-03       4.110381850919e+02 
       1.384756256951e-03       5.142671980247e+02 
       1.743304841017e-03       6.427566031197e+02 
       2.194690764860e-03       8.021791371904e+02 
       2.762951974912e-03       9.991239369331e+02 
       3.478350452784e-03       1.241104030746e+03 
       4.378983776135e-03       1.536147912986e+03 
       5.512813953611e-03       1.892229993398e+03 
       6.940221576695e-03       2.316190881317e+03 
       8.737221306383e-03       2.811998787146e+03 
       1.099950993108e-02       3.377794043413e+03 
       1.384756256951e-02       4.002231219507e+03 
       1.743304841017e-02       4.658864638952e+03 
       2.194690764860e-02       5.299925878571e+03 
       2.762951974900e-02       5.851324777641e+03 
       3.478350392244e-02       6.215646952513e+03 
       4.378946061308e-02       6.296180288689e+03 
       5.508379799070e-02       6.055893805766e+03 
       6.813096111340e-02       5.621399237175e+03 
       7.869123952883e-02       5.289522297345e+03 
       8.644068579031e-02       5.080304112475e+03 
       9.290202987749e-02       4.924575551887e+03 
       9.870487496314e-02       4.793103391458e+03 
       1.041354837225e-01       4.671938106827e+03 
       1.093476863116e-01       4.553285823147e+03 
       1.144347278439e-01       4.432580017149e+03 
       1.194583615145e-01       4.307189457254e+03 
       1.244623930048e-01       4.176024822270e+03 
       1.294796810116e-01       4.039142436745e+03 
       1.345360564516e-01       3.897605779285e+03 
       1.396526585606e-01       3.753263439253e+03 
       1.448473992114e-01       3.608588807384e+03 
       1.501359192483e-01       3.466183144063e+03 
       1.555322345651e-01       3.328945716155e+03 
       1.610491849651e-01       3.199271511118e+03 
       1.666987532576e-01       3.079059782390e+03 
       1.724922963548e-01       2.969371835841e+03 
       1.784407150794e-01       2.870291481673e+03 
       1.845545802713e-01       2.780779406807e+03 
       1.908442271043e-01       2.698745499119e+03 
       1.973198258933e-01       2.621242880115e+03 
       2.039914353201e-01       2.544828767517e+03 
       2.108690424541e-01       2.466090615181e+03 
       2.179625929110e-01       2.382301340878e+03 
       2.252820138064e-01       2.292019969128e+03 
       2.328372317071e-01       2.195494611120e+03 
       2.406381874793e-01       2.094759137336e+03 
       2.486948497421e-01       1.993241778296e+03 
       2.570172285086e-01       1.895076177747e+03 
       2.656153905233e-01       1.804089520978e+03 
       2.744994777509e-01       1.722690583804e+03 
       2.836797304474e-01       1.651324145643e+03 
       2.931665162176e-01       1.588099821574e+03 
       3.029703664545e-01       1.529654422714e+03 
       3.131020215474e-01       1.471414702543e+03 
       3.235724862512e-01       1.409558922306e+03 
       3.343930966375e-01       1.342763542602e+03 
       3.455756001003e-01       1.272709935266e+03 
       3.571322499932e-01       1.203092479977e+03 
       3.690759166386e-01       1.137951313011e+03 
       3.814202167026e-01       1.080067118166e+03 
       3.941796632945e-01       1.029639761631e+03 
       4.073698396648e-01       9.840576985404e+02 
       4.210076000780e-01       9.394632759461e+02 
       4.351113023867e-01       8.930071095581e+02 
       4.497010780935e-01       8.442865497091e+02 
       4.647991473580e-01       7.957062295201e+02 
       4.804301886156e-01       7.506107117210e+02 
       4.966217753996e-01       7.105634195283e+02 
       5.134048968605e-01       6.744823091959e+02 
       5.308145837192e-01       6.396160734091e+02 
       5.488906685052e-01       6.039881691299e+02 
       5.676787187151e-01       5.681115847524e+02 
       5.872311951413e-01       5.339980413124e+02 
       6.076089068703e-01       5.030145628249e+02 
       6.288828620769e-01       4.742741376241e+02 
       6.511366541043e-01       4.460564980976e+02 
       6.744695823831e-01       4.178914722583e+02 
       6.990007989775e-01       3.909094912549e+02 
       7.248749132499e-01       3.658004578536e+02 
       7.522697127449e-01       3.418292649555e+02 
       7.814070275397e-01       3.181761683790e+02 
       8.125683881115e-01       2.952557222140e+02 
       8.461182142079e-01       2.734924339549e+02 
       8.825392459816e-01       2.522326241025e+02 
       9.224886721202e-01       2.313620241458e+02 
       9.668908733639e-01       2.110822618230e+02 
       1.017098449724e+00       1.909610419066e+02 
       1.075188625081e+00       1.709411103782e+02 
       1.144547512308e+00       1.506899049075e+02 
       1.231114665593e+00       1.298726570260e+02 
       1.346244078446e+00       1.079677655735e+02 
       1.513435774204e+00       8.444981117307e+01 
       1.779876936174e+00       5.968606629671e+01 
       2.199498210732e+00       3.753341115167e+01 
       2.765832442248e+00       2.243514457276e+01 
       3.481925572338e+00       1.321968090248e+01 
       4.383484427556e+00       7.706992815621e+00 
       5.518479937988e+00       4.450541577429e+00 
       6.947354628409e+00       2.548065941240e+00 
       8.746201286450e+00       1.447557440563e+00 
       1.101081505618e+01       8.165747111186e-01 
