# Matter power spectrum P(k) at redshift z=0
# for k=1.22838e-05 to 6.16412 h/Mpc,
# number of wavenumbers equal to 119
#    1:k (h/Mpc)              2:P (Mpc/h)^3        
       1.228379171778e-05       2.466032074673e+01 
       1.546437754670e-05       3.095055921061e+01 
       1.946849787113e-05       3.884526351730e+01 
       2.450938669942e-05       4.875367982046e+01 
       3.085548974339e-05       6.118939838333e+01 
       3.884476013131e-05       7.679701991538e+01 
       4.890265564435e-05       9.638544291810e+01 
       6.156479589490e-05       1.209697594276e+02 
       7.750548602401e-05       1.518236667715e+02 
       9.757362590908e-05       1.905451336924e+02 
       1.228379171778e-04       2.391384948177e+02 
       1.546437754670e-04       3.001168997439e+02 
       1.946849787113e-04       3.766297450082e+02 
       2.450938669942e-04       4.726203927364e+02 
       3.085548974339e-04       5.930199026130e+02 
       3.884476013131e-04       7.439825256896e+02 
       4.890265564435e-04       9.331676617153e+02 
       6.156479589490e-04       1.170071168526e+03 
       7.750548602401e-04       1.466405391183e+03 
       9.757362590908e-04       1.836519912062e+03 
       1.228379171778e-03       2.297832532455e+03 
       1.546437754670e-03       2.871191757168e+03 
       1.946849787113e-03       3.581047885743e+03 
       2.450938669942e-03       4.455206678023e+03 
       3.085548974339e-03       5.524016972644e+03 
       3.884476013131e-03       6.818607999326e+03 
       4.890265564435e-03       8.367109501835e+03 
       6.156479589490e-03       1.018884770587e+04 
       7.750548602401e-03       1.228487514787e+04 
       9.757362590908e-03       1.462621304759e+04 
       1.228379171778e-02       1.713531233631e+04 
       1.546437754670e-02       1.966966001165e+04 
       1.946849784109e-02       2.200932669664e+04 
       2.450935204584e-02       2.387245197567e+04 
       3.084875945465e-02       2.498457252276e+04 
       3.854321429695e-02       2.521561274668e+04 
       4.564585068982e-02       2.486815715068e+04 
       5.072871754619e-02       2.444948713668e+04 
       5.481668847664e-02       2.404474294763e+04 
       5.841874825891e-02       2.364543780916e+04 
       6.175289678988e-02       2.324220143550e+04 
       6.493074517412e-02       2.282980416206e+04 
       6.801764789486e-02       2.240511449251e+04 
       7.105577970393e-02       2.196710650891e+04 
       7.407445135920e-02       2.151637174461e+04 
       7.709528093180e-02       2.105458939663e+04 
       8.013502146357e-02       2.058518257182e+04 
       8.320721526246e-02       2.011078890061e+04 
       8.632321532633e-02       1.963561749863e+04 
       8.949284422882e-02       1.916323662715e+04 
       9.272483472237e-02       1.869668730882e+04 
       9.602713327287e-02       1.823812994632e+04 
       9.940711435871e-02       1.778888983150e+04 
       1.028717348160e-01       1.734842340793e+04 
       1.064276467698e-01       1.691536549489e+04 
       1.100812812489e-01       1.648688018434e+04 
       1.138389106039e-01       1.605953138501e+04 
       1.177066953241e-01       1.562956405003e+04 
       1.216907192231e-01       1.519405036770e+04 
       1.257970158920e-01       1.475116034299e+04 
       1.300315886091e-01       1.430104345131e+04 
       1.344004254252e-01       1.384556808558e+04 
       1.389095108274e-01       1.338862867280e+04 
       1.435648351783e-01       1.293520232939e+04 
       1.483724029922e-01       1.249031539477e+04 
       1.533382410226e-01       1.205765347594e+04 
       1.584684070830e-01       1.163928147121e+04 
       1.637690004885e-01       1.123446026171e+04 
       1.692461749825e-01       1.084005130557e+04 
       1.749061550022e-01       1.045214918793e+04 
       1.807552561240e-01       1.006692306488e+04 
       1.867999105265e-01       9.682632725508e+03 
       1.930466983096e-01       9.299619408075e+03 
       1.995023855174e-01       8.921256758386e+03 
       2.061739697418e-01       8.551864392989e+03 
       2.130687342325e-01       8.195085737034e+03 
       2.201943115275e-01       7.852369702027e+03 
       2.275587577495e-01       7.522477686156e+03 
       2.351706389103e-01       7.201708275696e+03 
       2.430391308463e-01       6.887460355604e+03 
       2.511741347896e-01       6.579529465173e+03 
       2.595864111008e-01       6.279271888085e+03 
       2.682877343850e-01       5.988217780755e+03 
       2.772910741301e-01       5.707938549758e+03 
       2.866108062268e-01       5.438676409995e+03 
       2.962629623373e-01       5.178571483256e+03 
       3.062655262241e-01       4.926480832142e+03 
       3.166387890210e-01       4.681846941074e+03 
       3.274057793105e-01       4.445106978461e+03 
       3.385927891895e-01       4.217251518724e+03 
       3.502300248724e-01       3.997826913535e+03 
       3.623524207452e-01       3.786122186560e+03 
       3.750006705824e-01       3.581339476002e+03 
       3.882225511363e-01       3.383381682496e+03 
       4.020746450996e-01       3.192330344184e+03 
       4.166246184056e-01       3.007941936688e+03 
       4.319542807786e-01       2.829385611041e+03 
       4.481637752063e-01       2.656428428332e+03 
       4.653774313217e-01       2.488721245793e+03 
       4.837521338161e-01       2.325785341571e+03 
       5.034896026754e-01       2.167066086079e+03 
       5.248549596431e-01       2.011964750343e+03 
       5.482057822430e-01       1.859816110440e+03 
       5.740394284629e-01       1.709801318553e+03 
       6.030738306919e-01       1.560848063507e+03 
       6.363932851829e-01       1.411588111716e+03 
       6.757292392236e-01       1.260094314359e+03 
       7.240432249471e-01       1.103691427219e+03 
       7.868366693176e-01       9.385185757451e+02 
       8.752511426102e-01       7.597541243106e+02 
       1.012495059474e+00       5.653343525031e+02 
       1.234139583152e+00       3.741117725228e+02 
       1.548466310419e+00       2.297396847165e+02 
       1.949265462363e+00       1.381219449615e+02 
       2.453979076231e+00       8.198104746633e+01 
       3.089376618459e+00       4.811048512156e+01 
       3.889294731581e+00       2.794770605769e+01 
       4.896331971544e+00       1.608733554740e+01 
       6.164116743557e+00       9.184254656590e+00 
