# Matter power spectrum P(k) at redshift z=0
# for k=1.33448e-05 to 8.42978 h/Mpc,
# number of wavenumbers equal to 120
#    1:k (h/Mpc)              2:P (Mpc/h)^3        
       1.334476634011e-05       1.871753097161e+01 
       1.680006546003e-05       2.347568500166e+01 
       2.115002932743e-05       2.944337893314e+01 
       2.662630938050e-05       3.692807670907e+01 
       3.352053750140e-05       4.631537703361e+01 
       4.219985647751e-05       5.808885637111e+01 
       5.312647169361e-05       7.285494591062e+01 
       6.688226525404e-05       9.137408867056e+01 
       8.419978332667e-05       1.145997252939e+02 
       1.060012468975e-04       1.437270686195e+02 
       1.334476634011e-04       1.802539660410e+02 
       1.680006546003e-04       2.260566614913e+02 
       2.115002932743e-04       2.834837088735e+02 
       2.662630938050e-04       3.554716114686e+02 
       3.352053750140e-04       4.456858350996e+02 
       4.219985647751e-04       5.586903009007e+02 
       5.312647169361e-04       7.001471304601e+02 
       6.688226525404e-04       8.770460393331e+02 
       8.419978332667e-04       1.097959250394e+03 
       1.060012468975e-03       1.373311042359e+03 
       1.334476634011e-03       1.715630558769e+03 
       1.680006546003e-03       2.139651135896e+03 
       2.115002932743e-03       2.662279231958e+03 
       2.662630938050e-03       3.302375743622e+03 
       3.352053750140e-03       4.079501122584e+03 
       4.219985647751e-03       5.012064870015e+03 
       5.312647169361e-03       6.114091380854e+03 
       6.688226525404e-03       7.390111288114e+03 
       8.419978332667e-03       8.827121241199e+03 
       1.060012468975e-02       1.038477002459e+04 
       1.334476634011e-02       1.198152791304e+04 
       1.680006546003e-02       1.347870203537e+04 
       2.115002932703e-02       1.467413310942e+04 
       2.662630801748e-02       1.532000523201e+04 
       3.351989564565e-02       1.520164787943e+04 
       4.213978867761e-02       1.430642933906e+04 
       5.173942747176e-02       1.309613960799e+04 
       5.911941081292e-02       1.228599842042e+04 
       6.464689701791e-02       1.177598970645e+04 
       6.932447176699e-02       1.139343639151e+04 
       7.355876786247e-02       1.106840560530e+04 
       7.754006807170e-02       1.076732234471e+04 
       8.137283512763e-02       1.047138654227e+04 
       8.512137229974e-02       1.016973402214e+04 
       8.882876663618e-02       9.856574328791e+03 
       9.252586978227e-02       9.529784361958e+03 
       9.623600400712e-02       9.190131099651e+03 
       9.997762511281e-02       8.840982444381e+03 
       1.037659232415e-01       8.487355627390e+03 
       1.076138332360e-01       8.135729930133e+03 
       1.115326982474e-01       7.792998953149e+03 
       1.155327201577e-01       7.465839783141e+03 
       1.196232737206e-01       7.160040628962e+03 
       1.238131305906e-01       6.879594258791e+03 
       1.281106219754e-01       6.626378704186e+03 
       1.325237583769e-01       6.399667497147e+03 
       1.370603186352e-01       6.195972725742e+03 
       1.417279165761e-01       6.009472272633e+03 
       1.465340510642e-01       5.832277019501e+03 
       1.514861436293e-01       5.655723984458e+03 
       1.565915667609e-01       5.471646769250e+03 
       1.618576652482e-01       5.274095497391e+03 
       1.672917724679e-01       5.060502964353e+03 
       1.729012232041e-01       4.832849579109e+03 
       1.786933643795e-01       4.597134314373e+03 
       1.846755649417e-01       4.362451296513e+03 
       1.908552260639e-01       4.138784494422e+03 
       1.972397927657e-01       3.934807342280e+03 
       2.038367680288e-01       3.754997027811e+03 
       2.106537304577e-01       3.598831279166e+03 
       2.176983565243e-01       3.460363476305e+03 
       2.249784484241e-01       3.330652968763e+03 
       2.325019685700e-01       3.198842681939e+03 
       2.402770817534e-01       3.056883044871e+03 
       2.483122060270e-01       2.903401142437e+03 
       2.566160734071e-01       2.744125123123e+03 
       2.651978015742e-01       2.588582945533e+03 
       2.740669778843e-01       2.445810579053e+03 
       2.832337571979e-01       2.320805993863e+03 
       2.927089753206e-01       2.212340571815e+03 
       3.025042802489e-01       2.112950613287e+03 
       3.126322839601e-01       2.013731844269e+03 
       3.231067382159e-01       1.909306803719e+03 
       3.339427388255e-01       1.800580579011e+03 
       3.451569641002e-01       1.694102676503e+03 
       3.567679549375e-01       1.597151377715e+03 
       3.687964462306e-01       1.511674489027e+03 
       3.812657623147e-01       1.433817481461e+03 
       3.942022932187e-01       1.357252531157e+03 
       4.076360740117e-01       1.278727383817e+03 
       4.216014971283e-01       1.200698435311e+03 
       4.361381981643e-01       1.127739466895e+03 
       4.512921706522e-01       1.061770190762e+03 
       4.671171869483e-01       9.998230476162e+02 
       4.836766340317e-01       9.384841318969e+02 
       5.010459202903e-01       8.777522866910e+02 
       5.193156814139e-01       8.203029769970e+02 
       5.385961258236e-01       7.668298013957e+02 
       5.590230396017e-01       7.153307262345e+02 
       5.807662659734e-01       6.646229514574e+02 
       6.040419747639e-01       6.159485907981e+02 
       6.291309159097e-01       5.696327516078e+02 
       6.564064562185e-01       5.242265182739e+02 
       6.863792651850e-01       4.799370323603e+02 
       7.197716808912e-01       4.368304722104e+02 
       7.576479200018e-01       3.940695900244e+02 
       8.016561451177e-01       3.515590072978e+02 
       8.545111349017e-01       3.085268344362e+02 
       9.210352577386e-01       2.642396973364e+02 
       1.010574518740e+00       2.175946241950e+02 
       1.142618931543e+00       1.675989363749e+02 
       1.355013015111e+00       1.158222025770e+02 
       1.683059105073e+00       7.160981761731e+01 
       2.117478724797e+00       4.251767783614e+01 
       2.665730423091e+00       2.492691294178e+01 
       3.355955730457e+00       1.446725029905e+01 
       4.224897949917e+00       8.320721981411e+00 
       5.318831391387e+00       4.746586004878e+00 
       6.696011999666e+00       2.687702099040e+00 
       8.429779664058e+00       1.511648392733e+00 
