# Matter power spectrum P(k) at redshift z=0
# for k=1.33489e-05 to 10.6143 h/Mpc,
# number of wavenumbers equal to 121
#    1:k (h/Mpc)              2:P (Mpc/h)^3        
       1.334887347100e-05       2.307277954944e+01 
       1.680523603146e-05       2.891808774767e+01 
       2.115653869121e-05       3.624421235015e+01 
       2.663450418397e-05       4.542629405425e+01 
       3.353085414774e-05       5.693446440361e+01 
       4.221284436575e-05       7.135786807465e+01 
       5.314282247615e-05       8.943480225418e+01 
       6.690284966969e-05       1.120903245679e+02 
       8.422569757062e-05       1.404833246067e+02 
       1.060338709977e-04       1.760652527939e+02 
       1.334887347100e-04       2.206532066317e+02 
       1.680523603146e-04       2.765205705662e+02 
       2.115653869121e-04       3.465087068152e+02 
       2.663450418397e-04       4.341632895010e+02 
       3.353085414774e-04       5.438983509465e+02 
       4.221284436575e-04       6.811894919586e+02 
       5.314282247615e-04       8.527946258486e+02 
       6.690284966969e-04       1.066996012373e+03 
       8.422569757062e-04       1.333851401926e+03 
       1.060338709977e-03       1.665431391684e+03 
       1.334887347100e-03       2.075987723293e+03 
       1.680523603146e-03       2.581928407443e+03 
       2.115653869121e-03       3.201359175058e+03 
       2.663450418397e-03       3.953293919863e+03 
       3.353085414774e-03       4.855794233400e+03 
       4.221284436575e-03       5.922922860885e+03 
       5.314282247615e-03       7.160317491711e+03 
       6.690284966969e-03       8.558820488324e+03 
       8.422569757062e-03       1.008536901582e+04 
       1.060338709977e-02       1.167357813678e+04 
       1.334887347100e-02       1.321105848142e+04 
       1.680523603146e-02       1.452809050013e+04 
       2.115653869117e-02       1.539864593676e+04 
       2.663450397759e-02       1.557100418212e+04 
       3.353069591062e-02       1.486040264834e+04 
       4.219081393372e-02       1.332955928846e+04 
       5.240581415472e-02       1.152445377954e+04 
       6.103746502642e-02       1.034901590793e+04 
       6.729394965565e-02       9.707295436590e+03 
       7.245017704891e-02       9.273395321825e+03 
       7.705246714730e-02       8.928542697167e+03 
       8.134407298199e-02       8.620848572569e+03 
       8.545362407118e-02       8.324497519677e+03 
       8.945819559424e-02       8.024939448918e+03 
       9.340838972410e-02       7.714962032263e+03 
       9.733985471272e-02       7.392384051357e+03 
       1.012791779424e-01       7.058572329733e+03 
       1.052471590638e-01       6.717792938734e+03 
       1.092607487605e-01       6.376140294915e+03 
       1.133342578352e-01       6.040911554470e+03 
       1.174801435592e-01       5.719716216122e+03 
       1.217095390805e-01       5.419426263957e+03 
       1.260326201791e-01       5.145640038473e+03 
       1.304588653886e-01       4.901803884414e+03 
       1.349972440321e-01       4.688994446899e+03 
       1.396563541934e-01       4.505348445641e+03 
       1.444445250781e-01       4.346344873668e+03 
       1.493698935234e-01       4.205142972426e+03 
       1.544404614209e-01       4.073146365283e+03 
       1.596641388795e-01       3.941111414826e+03 
       1.650487766776e-01       3.800757995930e+03 
       1.706021907059e-01       3.646284684846e+03 
       1.763321805394e-01       3.475669253223e+03 
       1.822465438990e-01       3.291641320284e+03 
       1.883530885192e-01       3.100860449942e+03 
       1.946596427764e-01       2.912662838271e+03 
       2.011740663289e-01       2.736847289675e+03 
       2.079042619611e-01       2.581100305267e+03 
       2.148581897767e-01       2.449057942965e+03 
       2.220438848677e-01       2.339226976915e+03 
       2.294694795651e-01       2.245186369162e+03 
       2.371432313658e-01       2.157718127525e+03 
       2.450735576281e-01       2.067580455340e+03 
       2.532690781268e-01       1.967432396710e+03 
       2.617386665815e-01       1.856400062702e+03 
       2.704915123085e-01       1.740242059086e+03 
       2.795371932237e-01       1.628128842352e+03 
       2.888857615476e-01       1.527751209260e+03 
       2.985478437512e-01       1.442568687175e+03 
       3.085347565591e-01       1.370939299647e+03 
       3.188586412164e-01       1.306463353428e+03 
       3.295326187588e-01       1.241383005636e+03 
       3.405709697471e-01       1.171509151962e+03 
       3.519893428884e-01       1.098207062861e+03 
       3.638049982375e-01       1.026792244763e+03 
       3.760370923533e-01       9.629675315777e+02 
       3.887070150160e-01       9.081031051563e+02 
       4.018387900721e-01       8.586511740855e+02 
       4.154595569640e-01       8.099463236074e+02 
       4.296001548971e-01       7.596494920678e+02 
       4.442958390117e-01       7.097885082919e+02 
       4.595871682310e-01       6.637417898798e+02 
       4.755211189936e-01       6.225931644029e+02 
       4.921524999128e-01       5.842384351457e+02 
       5.095457727752e-01       5.462358532903e+02 
       5.277774303945e-01       5.088395165311e+02 
       5.469391501768e-01       4.737296810167e+02 
       5.671420481331e-01       4.412084596943e+02 
       5.885225261537e-01       4.101267235486e+02 
       6.112504795058e-01       3.797104641082e+02 
       6.355410923806e-01       3.506483009993e+02 
       6.616722507732e-01       3.231939512214e+02 
       6.900110500709e-01       2.964898571924e+02 
       7.210556070197e-01       2.706077207140e+02 
       7.555038013817e-01       2.455988194975e+02 
       7.943719248324e-01       2.210166526994e+02 
       8.392115596756e-01       1.968058155872e+02 
       8.925336262851e-01       1.725756873872e+02 
       9.587036415928e-01       1.479755730186e+02 
       1.045984334717e+00       1.224549359576e+02 
       1.171362666965e+00       9.546339565619e+01 
       1.369535858306e+00       6.733825473308e+01 
       1.685148247374e+00       4.200998643200e+01 
       2.117886136470e+00       2.471469164849e+01 
       2.666191962514e+00       1.433878152088e+01 
       3.356536556263e+00       8.243287635176e+00 
       4.225629166158e+00       4.700304715464e+00 
       5.319751938095e+00       2.660324918417e+00 
       6.697170899309e+00       1.495582305344e+00 
       8.431238632269e+00       8.355975144155e-01 
       1.061430056706e+01       4.642829440254e-01 
