# Matter power spectrum P(k) at redshift z=0
# for k=8.77747e-06 to 6.97978 h/Mpc,
# number of wavenumbers equal to 121
#    1:k (h/Mpc)              2:P (Mpc/h)^3        
       8.777470046188e-06       7.385038667080e+01 
       1.105018009241e-05       9.236805569593e+01 
       1.391135252323e-05       1.155288763657e+02 
       1.751335520393e-05       1.444968729885e+02 
       2.204800791200e-05       1.807278649499e+02 
       2.775679743986e-05       2.260423770310e+02 
       3.494373764706e-05       2.827167295439e+02 
       4.399155930695e-05       3.535967814617e+02 
       5.538209191597e-05       4.422393536212e+02 
       6.972192287134e-05       5.530880522445e+02 
       8.777470046188e-05       6.916906521980e+02 
       1.105018009241e-04       8.649662488238e+02 
       1.391135252323e-04       1.081530208673e+03 
       1.751335520393e-04       1.352083094335e+03 
       2.204800791200e-04       1.689864525288e+03 
       2.775679743986e-04       2.111162361497e+03 
       3.494373764706e-04       2.635850035349e+03 
       4.399155930695e-04       3.287902101951e+03 
       5.538209191597e-04       4.095814532686e+03 
       6.972192287134e-04       5.092821525109e+03 
       8.777470046188e-04       6.316679082159e+03 
       1.105018009241e-03       7.808501391978e+03 
       1.391135252323e-03       9.610020525443e+03 
       1.751335520393e-03       1.175883041392e+04 
       2.204800791200e-03       1.428077951766e+04 
       2.775679743986e-03       1.717947545199e+04 
       3.494373764706e-03       2.042229587189e+04 
       4.399155930695e-03       2.392293072960e+04 
       5.538209191597e-03       2.752415027124e+04 
       6.972192287134e-03       3.098598849459e+04 
       8.777470046188e-03       3.396125499671e+04 
       1.105018009241e-02       3.601641601180e+04 
       1.391135252309e-02       3.666376206927e+04 
       1.751335464623e-02       3.548904129168e+04 
       2.204771074326e-02       3.239326475316e+04 
       2.772603616788e-02       2.793697522418e+04 
       3.416118103034e-02       2.367885050403e+04 
       3.921611279947e-02       2.121188360093e+04 
       4.296664674039e-02       1.977519594446e+04 
       4.612015758652e-02       1.873072570088e+04 
       4.896499623397e-02       1.785598809898e+04 
       5.163438522426e-02       1.705769969420e+04 
       5.420077823954e-02       1.629133757301e+04 
       5.670847375886e-02       1.553427440319e+04 
       5.918700161774e-02       1.478018825364e+04 
       6.165741886855e-02       1.402773569739e+04 
       6.413558894201e-02       1.328588627115e+04 
       6.663402844398e-02       1.256152212184e+04 
       6.916301319827e-02       1.186794855355e+04 
       7.173127420930e-02       1.121434268361e+04 
       7.434645362863e-02       1.061053988725e+04 
       7.701541360089e-02       1.006266583922e+04 
       7.974445129645e-02       9.572286077065e+03 
       8.253945204808e-02       9.138003166640e+03 
       8.540600041084e-02       8.753395921735e+03 
       8.834946185411e-02       8.407996187574e+03 
       9.137504347524e-02       8.088519624093e+03 
       9.448783942754e-02       7.781410702543e+03 
       9.769286503187e-02       7.473084658841e+03 
       1.009950824192e-01       7.153043354453e+03 
       1.043994198120e-01       6.815033012865e+03 
       1.079107860613e-01       6.460289112689e+03 
       1.115340817267e-01       6.095930171699e+03 
       1.152742077725e-01       5.733336239443e+03 
       1.191360728071e-01       5.386305739233e+03 
       1.231245997027e-01       5.067332422949e+03 
       1.272447323730e-01       4.783622371741e+03 
       1.315014434504e-01       4.536332815225e+03 
       1.358997435800e-01       4.319499526093e+03 
       1.404446930357e-01       4.122523478378e+03 
       1.451414163509e-01       3.931720687403e+03 
       1.499951206527e-01       3.736978079656e+03 
       1.550111183826e-01       3.533049472483e+03 
       1.601948550946e-01       3.322305294295e+03 
       1.655519430311e-01       3.114250416756e+03 
       1.710882012082e-01       2.918616756855e+03 
       1.768097027946e-01       2.743236133329e+03 
       1.827228306514e-01       2.588894450451e+03 
       1.888343420316e-01       2.449159548464e+03 
       1.951514436204e-01       2.316231475313e+03 
       2.016818783626e-01       2.184731302501e+03 
       2.084340258768e-01       2.053188006266e+03 
       2.154170187387e-01       1.923592641056e+03 
       2.226408775505e-01       1.801628837603e+03 
       2.301166685619e-01       1.690492180117e+03 
       2.378566887223e-01       1.589119113828e+03 
       2.458746845242e-01       1.494182831017e+03 
       2.541861129749e-01       1.401822272061e+03 
       2.628084556864e-01       1.311763347885e+03 
       2.717616006829e-01       1.226177035886e+03 
       2.810683114921e-01       1.146436422316e+03 
       2.907548100046e-01       1.072431909873e+03 
       3.008515093827e-01       1.002158389799e+03 
       3.113939473789e-01       9.345793834631e+02 
       3.224239910275e-01       8.701353982808e+02 
       3.339914143783e-01       8.097177921759e+02 
       3.461559976767e-01       7.524746126146e+02 
       3.589903691181e-01       6.979149692115e+02 
       3.725839263593e-01       6.458670757497e+02 
       3.870483653253e-01       5.963728988385e+02 
       4.025256659098e-01       5.492067836206e+02 
       4.191999482576e-01       5.039970765476e+02 
       4.373156408301e-01       4.605499518751e+02 
       4.572063581063e-01       4.187174462550e+02 
       4.793428048571e-01       3.781444444982e+02 
       5.044163371033e-01       3.385554435041e+02 
       5.334936163650e-01       2.995412308752e+02 
       5.683233982050e-01       2.606310904368e+02 
       6.119945339873e-01       2.211805524099e+02 
       6.704568645761e-01       1.803178476142e+02 
       7.560802659185e-01       1.373631284171e+02 
       8.932833128294e-01       9.367527623033e+01 
       1.107157843709e+00       5.674377701918e+01 
       1.392662258517e+00       3.288967089717e+01 
       1.753241416903e+00       1.885547649789e+01 
       2.207200129371e+00       1.072187563453e+01 
       2.778700331765e+00       6.052110760422e+00 
       3.498176459420e+00       3.393399121913e+00 
       4.403943239704e+00       1.891132161722e+00 
       5.544236056562e+00       1.048063769221e+00 
       6.979779660592e+00       5.778682126040e-01 
