# Matter power spectrum P(k) at redshift z=0
# for k=1.75551e-05 to 8.80767 h/Mpc,
# number of wavenumbers equal to 119
#    1:k (h/Mpc)              2:P (Mpc/h)^3        
       1.755512666050e-05       1.295126745447e+01 
       2.210059506017e-05       1.610727226677e+01 
       2.782300073702e-05       2.003233535992e+01 
       3.502708266021e-05       2.491385486166e+01 
       4.409648446195e-05       3.098488578934e+01 
       5.551418485994e-05       3.853525738504e+01 
       6.988821803521e-05       4.792539196519e+01 
       8.798405366954e-05       5.960347347761e+01 
       1.107653609972e-04       7.412676821529e+01 
       1.394453277060e-04       9.218808030926e+01 
       1.755512666050e-04       1.146485281600e+02 
       2.210059506017e-04       1.425780729119e+02 
       2.782300073702e-04       1.773054628436e+02 
       3.502708266021e-04       2.204794757137e+02 
       4.409648446195e-04       2.741434539667e+02 
       5.551418485994e-04       3.408250488308e+02 
       6.988821803521e-04       4.236427011784e+02 
       8.798405366954e-04       5.264296485819e+02 
       1.107653609972e-03       6.538750562303e+02 
       1.394453277060e-03       8.116791785634e+02 
       1.755512666050e-03       1.006711217827e+03 
       2.210059506017e-03       1.246951280125e+03 
       2.782300073702e-03       1.541964325983e+03 
       3.502708266021e-03       1.902463214660e+03 
       4.409648446195e-03       2.340023189018e+03 
       5.551418485994e-03       2.866320675308e+03 
       6.988821803521e-03       3.491721891297e+03 
       8.798405366954e-03       4.222960201407e+03 
       1.107653609972e-02       5.059049727065e+03 
       1.394453277060e-02       5.986089288692e+03 
       1.755512666050e-02       6.969005442689e+03 
       2.210059506017e-02       7.941963235338e+03 
       2.782300073683e-02       8.799759208405e+03 
       3.502708182655e-02       9.399901453166e+03 
       4.409600543020e-02       9.594482582566e+03 
       5.546145309382e-02       9.314171508931e+03 
       6.846648911579e-02       8.728183230232e+03 
       7.882750722796e-02       8.264959513989e+03 
       8.647301099904e-02       7.963091760835e+03 
       9.287569354812e-02       7.734446320688e+03 
       9.863928761519e-02       7.540191316732e+03 
       1.040405717114e-01       7.361197111457e+03 
       1.092292066163e-01       7.186470244570e+03 
       1.142963161177e-01       7.009274023225e+03 
       1.193024529666e-01       6.825555171598e+03 
       1.242906872675e-01       6.633259638800e+03 
       1.292933982674e-01       6.432082243715e+03 
       1.343360884433e-01       6.223094734855e+03 
       1.394396625256e-01       6.008601904140e+03 
       1.446218588813e-01       5.791878286403e+03 
       1.498981858682e-01       5.576721780640e+03 
       1.552825552676e-01       5.367210659797e+03 
       1.607877228500e-01       5.167144334061e+03 
       1.664256018603e-01       4.979679351775e+03 
       1.722074902144e-01       4.806829974526e+03 
       1.781442375330e-01       4.649336596654e+03 
       1.842463692358e-01       4.506261275217e+03 
       1.905241793749e-01       4.375100726621e+03 
       1.969878003348e-01       4.251872581364e+03 
       2.036472552280e-01       4.131690747313e+03 
       2.105124972915e-01       4.009393003343e+03 
       2.175934395817e-01       3.880550654726e+03 
       2.248999775934e-01       3.742165265081e+03 
       2.324420069786e-01       3.593815581598e+03 
       2.402294382529e-01       3.437685861234e+03 
       2.482722101814e-01       3.278397182630e+03 
       2.565803034216e-01       3.121983811332e+03 
       2.651637559190e-01       2.974723592842e+03 
       2.740326815107e-01       2.841204739708e+03 
       2.831972931567e-01       2.723189067722e+03 
       2.926679322021e-01       2.619085902806e+03 
       3.024551050575e-01       2.524073426220e+03 
       3.125695286818e-01       2.431051972617e+03 
       3.230221862576e-01       2.333666197787e+03 
       3.338243944726e-01       2.228755459975e+03 
       3.449878838831e-01       2.117445336309e+03 
       3.565248939353e-01       2.004573417822e+03 
       3.684482843876e-01       1.896894559311e+03 
       3.807716651375e-01       1.800049497728e+03 
       3.935095468205e-01       1.715571895462e+03 
       4.066775150753e-01       1.640404163332e+03 
       4.202924320746e-01       1.568569036369e+03 
       4.343726698834e-01       1.494248132299e+03 
       4.489383814753e-01       1.415438245714e+03 
       4.640118169277e-01       1.335305550732e+03 
       4.796176945421e-01       1.259438724800e+03 
       4.957836395910e-01       1.191817895259e+03 
       5.125407073334e-01       1.131844923995e+03 
       5.299240122331e-01       1.074993330267e+03 
       5.479734925112e-01       1.017034710362e+03 
       5.667348490503e-01       9.575065595496e+02 
       5.862607114499e-01       8.999128527352e+02 
       6.066121035203e-01       8.474997442399e+02 
       6.278603084956e-01       7.997646658428e+02 
       6.500892751813e-01       7.533069963337e+02 
       6.733987672077e-01       7.063599762990e+02 
       6.979085502515e-01       6.606325491099e+02 
       7.237640561921e-01       6.182838333394e+02 
       7.511441928669e-01       5.783842493013e+02 
       7.802723444118e-01       5.387498995409e+02 
       8.114322429814e-01       4.998947737323e+02 
       8.449915045887e-01       4.632122163461e+02 
       8.814376437365e-01       4.275047729475e+02 
       9.214352242743e-01       3.921206374521e+02 
       9.659204836023e-01       3.578377905174e+02 
       1.016266016412e+00       3.237557334937e+02 
       1.074584760697e+00       2.897710007716e+02 
       1.144331159635e+00       2.553354250553e+02 
       1.231586243291e+00       2.198820363825e+02 
       1.348020218146e+00       1.824836334072e+02 
       1.517845304119e+00       1.422589923863e+02 
       1.789276045359e+00       9.999300720494e+01 
       2.214574460328e+00       6.258158902542e+01 
       2.785262663637e+00       3.731283394127e+01 
       3.506396927780e+00       2.192405605450e+01 
       4.414292079761e+00       1.273873559723e+01 
       5.557264474249e+00       7.327888264869e+00 
       6.996181466693e+00       4.177459611367e+00 
       8.807670633944e+00       2.362153816310e+00 
