# Matter power spectrum P(k) at redshift z=0
# for k=1.31839e-05 to 6.61679 h/Mpc,
# number of wavenumbers equal to 119
#    1:k (h/Mpc)              2:P (Mpc/h)^3        
       1.318385119654e-05       2.681666317560e+01 
       1.659748529663e-05       3.343447529198e+01 
       2.089499601181e-05       4.168541510234e+01 
       2.630524145861e-05       5.197247397644e+01 
       3.311633693562e-05       6.479809265133e+01 
       4.169099811379e-05       8.078865677746e+01 
       5.248585696851e-05       1.007250459080e+02 
       6.607577909745e-05       1.255806901992e+02 
       8.318447740988e-05       1.565689234290e+02 
       1.047230524781e-04       1.952018840430e+02 
       1.318385119654e-04       2.433636590352e+02 
       1.659748529663e-04       3.034008751311e+02 
       2.089499601181e-04       3.782345760131e+02 
       2.630524145861e-04       4.714975446556e+02 
       3.311633693562e-04       5.877015516044e+02 
       4.169099811379e-04       7.324386404638e+02 
       5.248585696851e-04       9.126194380088e+02 
       6.607577909745e-04       1.136749547368e+03 
       8.318447740988e-04       1.415241712237e+03 
       1.047230524781e-03       1.760754992813e+03 
       1.318385119654e-03       2.188531833204e+03 
       1.659748529663e-03       2.716491239505e+03 
       2.089499601181e-03       3.365516103169e+03 
       2.630524145861e-03       4.159241717723e+03 
       3.311633693562e-03       5.122861784874e+03 
       4.169099811379e-03       6.281348048151e+03 
       5.248585696851e-03       7.656074487657e+03 
       6.607577909745e-03       9.259240282826e+03 
       8.318447740988e-03       1.108468193874e+04 
       1.047230524781e-02       1.309610250374e+04 
       1.318385119654e-02       1.520958518260e+04 
       1.659748529663e-02       1.727380515832e+04 
       2.089499600914e-02       1.905628867825e+04 
       2.630523574319e-02       2.026023280128e+04 
       3.311449799648e-02       2.060995829522e+04 
       4.156510022616e-02       2.004246564828e+04 
       5.035971855771e-02       1.904990622973e+04 
       5.678867611596e-02       1.832390270867e+04 
       6.175507112118e-02       1.780048201635e+04 
       6.603665138140e-02       1.736897817822e+04 
       6.995180348120e-02       1.697858932073e+04 
       7.365548163310e-02       1.660267244122e+04 
       7.723520212039e-02       1.622535049793e+04 
       8.074595878393e-02       1.583735825778e+04 
       8.422518849931e-02       1.543363888376e+04 
       8.770004119108e-02       1.501259600227e+04 
       9.119126056966e-02       1.457541513191e+04 
       9.471541201144e-02       1.412579143537e+04 
       9.828623740473e-02       1.366920464096e+04 
       1.019155183434e-01       1.321229362012e+04 
       1.056136474782e-01       1.276313473295e+04 
       1.093900188091e-01       1.232836555066e+04 
       1.132533013282e-01       1.191448549628e+04 
       1.172116350045e-01       1.152582000412e+04 
       1.212727735553e-01       1.116473911770e+04 
       1.254441898181e-01       1.083038922901e+04 
       1.297331542423e-01       1.051887425422e+04 
       1.341467936979e-01       1.022395886753e+04 
       1.386921356573e-01       9.937101266555e+03 
       1.433761414094e-01       9.648966125888e+03 
       1.482057310436e-01       9.351093210519e+03 
       1.531878023213e-01       9.037445127157e+03 
       1.583292451478e-01       8.706066458235e+03 
       1.636369530832e-01       8.359680199632e+03 
       1.691178331555e-01       8.005626069951e+03 
       1.747788151233e-01       7.654265793409e+03 
       1.806268612648e-01       7.317036873000e+03 
       1.866689777253e-01       7.003440757444e+03 
       1.929122284248e-01       6.717927191568e+03 
       1.993637525125e-01       6.459350009882e+03 
       2.060307863395e-01       6.220316834030e+03 
       2.129206909157e-01       5.990580962290e+03 
       2.200409858139e-01       5.757624014072e+03 
       2.273993904933e-01       5.513360602969e+03 
       2.350038740387e-01       5.257591124442e+03 
       2.428627143604e-01       4.997993383736e+03 
       2.509845679870e-01       4.745984368601e+03 
       2.593785517159e-01       4.511757113408e+03 
       2.680543375896e-01       4.300270802393e+03 
       2.770222629570e-01       4.108712539656e+03 
       2.862934577773e-01       3.927636585622e+03 
       2.958799918763e-01       3.746792514418e+03 
       3.057950455926e-01       3.560985982295e+03 
       3.160531082280e-01       3.372543431813e+03 
       3.266702100030e-01       3.190066089051e+03 
       3.376641949175e-01       3.021628657718e+03 
       3.490550441813e-01       2.868326336505e+03 
       3.608652628964e-01       2.724522000288e+03 
       3.731203467483e-01       2.582600744680e+03 
       3.858493510194e-01       2.439773119623e+03 
       3.990855919077e-01       2.299960774780e+03 
       4.128675208711e-01       2.168602706014e+03 
       4.272398279840e-01       2.046976363126e+03 
       4.422548523385e-01       1.930704333583e+03 
       4.579744099593e-01       1.815954438868e+03 
       4.744721983151e-01       1.703622732180e+03 
       4.918370109677e-01       1.596989608401e+03 
       5.101771125731e-01       1.496121064449e+03 
       5.296263120557e-01       1.398113611942e+03 
       5.503525821530e-01       1.302063011891e+03 
       5.725706036732e-01       1.209707929039e+03 
       5.965605514514e-01       1.120702945467e+03 
       6.226971697519e-01       1.033191387416e+03 
       6.514965267757e-01       9.476706440230e+02 
       6.836946380836e-01       8.636128549063e+02 
       7.203868328219e-01       7.798769190566e+02 
       7.632906152266e-01       6.959279294250e+02 
       8.152785855964e-01       6.102471790928e+02 
       8.815480219079e-01       5.211328304493e+02 
       9.723659283334e-01       4.262082325368e+02 
       1.109264070922e+00       3.236687658461e+02 
       1.331149782742e+00       2.191581358072e+02 
       1.662514084657e+00       1.345031618336e+02 
       2.092417677311e+00       8.008187278961e+01 
       2.634192731702e+00       4.707136034373e+01 
       3.316252161797e+00       2.736628513300e+01 
       4.174914118402e+00       1.575405070249e+01 
       5.255905475715e+00       8.989126527525e+00 
       6.616792965365e+00       5.088250314136e+00 
