# Matter power spectrum P(k) at redshift z=0
# for k=1.08863e-05 to 6.87831 h/Mpc,
# number of wavenumbers equal to 120
#    1:k (h/Mpc)              2:P (Mpc/h)^3        
       1.088626089788e-05       5.152227342529e+01 
       1.370499048377e-05       6.408622762363e+01 
       1.725356078841e-05       7.971387330682e+01 
       2.172094612046e-05       9.915229441084e+01 
       2.734505103926e-05       1.233306232173e+02 
       3.442537964014e-05       1.534044515665e+02 
       4.333898523963e-05       1.908109653864e+02 
       5.456054983954e-05       2.373372801887e+02 
       6.868766267446e-05       2.952054004494e+02 
       8.647264401763e-05       3.671773102256e+02 
       1.088626089788e-04       4.566848906056e+02 
       1.370499048377e-04       5.679897491118e+02 
       1.725356078841e-04       7.063788630436e+02 
       2.172094612046e-04       8.784016067174e+02 
       2.734505103926e-04       1.092153099557e+03 
       3.442537964014e-04       1.357605778363e+03 
       4.333898523963e-04       1.686986051650e+03 
       5.456054983954e-04       2.095185088346e+03 
       6.868766267446e-04       2.600183078066e+03 
       8.647264401763e-04       3.223448475830e+03 
       1.088626089788e-03       3.990220730640e+03 
       1.370499048377e-03       4.929470922971e+03 
       1.725356078841e-03       6.073176800766e+03 
       2.172094612046e-03       7.454832980821e+03 
       2.734505103926e-03       9.106642863357e+03 
       3.442537964014e-03       1.105423196908e+04 
       4.333898523963e-03       1.330915860872e+04 
       5.456054983954e-03       1.585779106644e+04 
       6.868766267446e-03       1.864604768326e+04 
       8.647264401763e-03       2.156264642633e+04 
       1.088626089788e-02       2.441620464533e+04 
       1.370499048377e-02       2.692177015451e+04 
       1.725356078638e-02       2.869907387063e+04 
       2.172094168320e-02       2.934242916134e+04 
       2.734359975736e-02       2.857933322856e+04 
       3.432466798353e-02       2.656582990005e+04 
       4.161434128716e-02       2.432954109719e+04 
       4.695166130688e-02       2.289649718265e+04 
       5.106920815355e-02       2.191622460383e+04 
       5.461628772749e-02       2.113142659126e+04 
       5.785844477929e-02       2.043687973066e+04 
       6.092469959965e-02       1.978295102851e+04 
       6.388783383248e-02       1.914271119136e+04 
       6.679354219652e-02       1.850240741845e+04 
       6.967291016173e-02       1.785537232349e+04 
       7.254846914018e-02       1.720101978414e+04 
       7.543742619584e-02       1.654236379696e+04 
       7.835351703201e-02       1.588588512819e+04 
       8.130813229459e-02       1.523961741236e+04 
       8.431103486806e-02       1.461207594074e+04 
       8.737083449830e-02       1.401190850310e+04 
       9.049531192059e-02       1.344627932273e+04 
       9.369164606135e-02       1.291985526613e+04 
       9.696657673149e-02       1.243410284047e+04 
       1.003265231292e-01       1.198730081928e+04 
       1.037776712902e-01       1.157410286512e+04 
       1.073260392258e-01       1.118610847600e+04 
       1.109775257242e-01       1.081277189987e+04 
       1.147379470129e-01       1.044303462153e+04 
       1.186130643214e-01       1.006705540515e+04 
       1.226086046124e-01       9.677474625099e+03 
       1.267302762402e-01       9.272228128316e+03 
       1.309837809566e-01       8.854342281971e+03 
       1.353748234545e-01       8.432012154912e+03 
       1.399091194979e-01       8.016460290198e+03 
       1.445924035871e-01       7.619812048400e+03 
       1.494304370515e-01       7.252034330229e+03 
       1.544290174236e-01       6.917692674706e+03 
       1.595939899244e-01       6.615243384861e+03 
       1.649312618753e-01       6.336734179633e+03 
       1.704468208424e-01       6.070796983617e+03 
       1.761467573106e-01       5.805567716670e+03 
       1.820372926864e-01       5.533973961871e+03 
       1.881248134318e-01       5.254335579317e+03 
       1.944159121551e-01       4.972769942796e+03 
       2.009174365229e-01       4.700028858342e+03 
       2.076365469274e-01       4.446669959021e+03 
       2.145807839566e-01       4.216753390643e+03 
       2.217581468802e-01       4.006796420227e+03 
       2.291771846019e-01       3.809475483580e+03 
       2.368471008642e-01       3.616747926294e+03 
       2.447778759381e-01       3.423512080352e+03 
       2.529804076400e-01       3.230987927521e+03 
       2.614666753180e-01       3.045329967456e+03 
       2.702499315130e-01       2.872058907378e+03 
       2.793449274058e-01       2.712750782779e+03 
       2.887681800239e-01       2.563970600950e+03 
       2.985382916780e-01       2.419914029229e+03 
       3.086763354572e-01       2.278429021733e+03 
       3.192063251965e-01       2.141322272003e+03 
       3.301557946577e-01       2.011758487256e+03 
       3.415565195213e-01       1.890801689361e+03 
       3.534454283762e-01       1.776111910847e+03 
       3.658657670741e-01       1.665274226915e+03 
       3.788686075526e-01       1.558141984021e+03 
       3.925148323084e-01       1.456378751226e+03 
       4.068777870527e-01       1.359885213988e+03 
       4.220468902150e-01       1.267376037331e+03 
       4.381326424840e-01       1.178247503821e+03 
       4.552737351515e-01       1.092672937521e+03 
       4.736473924243e-01       1.010640563686e+03 
       4.934848552517e-01       9.313973099818e+02 
       5.150953378169e-01       8.545375866785e+02 
       5.389045353613e-01       7.799158752807e+02 
       5.655193497011e-01       7.068324316683e+02 
       5.958425574138e-01       6.347872327288e+02 
       6.312889484845e-01       5.630002775569e+02 
       6.742231988093e-01       4.904379566561e+02 
       7.289201223590e-01       4.156803610233e+02 
       8.038174758546e-01       3.369247716927e+02 
       9.166090762559e-01       2.530223046111e+02 
       1.099390941479e+00       1.688614369342e+02 
       1.372789980180e+00       1.018900192482e+02 
       1.727755926836e+00       5.967769566006e+01 
       2.175111430702e+00       3.455654006219e+01 
       2.738303046743e+00       1.981724901428e+01 
       3.447319290737e+00       1.126583664536e+01 
       4.339917857678e+00       6.353986701782e+00 
       5.463632876130e+00       3.558409596203e+00 
       6.878306268474e+00       1.979814427108e+00 
