# Matter power spectrum P(k) at redshift z=0
# for k=1.25531e-05 to 6.29977 h/Mpc,
# number of wavenumbers equal to 119
#    1:k (h/Mpc)              2:P (Mpc/h)^3        
       1.255312788752e-05       2.778865658748e+01 
       1.580345169509e-05       3.449826521187e+01 
       1.989536693302e-05       4.282791041582e+01 
       2.504678300894e-05       5.316870774220e+01 
       3.153203161365e-05       6.600623102178e+01 
       3.969647588393e-05       8.194322433000e+01 
       4.997490224895e-05       1.017278948131e+02 
       6.291467439313e-05       1.262889413547e+02 
       7.920488236827e-05       1.567789740068e+02 
       9.971303915158e-05       1.946282805346e+02 
       1.255312788752e-04       2.416112566340e+02 
       1.580345169509e-04       2.999283213572e+02 
       1.989536693302e-04       3.723065077502e+02 
       2.504678300894e-04       4.621222464947e+02 
       3.153203161365e-04       5.735499063233e+02 
       3.969647588393e-04       7.117391523784e+02 
       4.997490224895e-04       8.830229645913e+02 
       6.291467439313e-04       1.095155996523e+03 
       7.920488236827e-04       1.357579946567e+03 
       9.971303915158e-04       1.681706407221e+03 
       1.255312788752e-03       2.081145663359e+03 
       1.580345169509e-03       2.571647660741e+03 
       1.989536693302e-03       3.171828516393e+03 
       2.504678300894e-03       3.902080600973e+03 
       3.153203161365e-03       4.783852731624e+03 
       3.969647588393e-03       5.837764971378e+03 
       4.997490224895e-03       7.080381439344e+03 
       6.291467439313e-03       8.518913013418e+03 
       7.920488236827e-03       1.014263627458e+04 
       9.971303915158e-03       1.191209897759e+04 
       1.255312788752e-02       1.374288184296e+04 
       1.580345169509e-02       1.548613604612e+04 
       1.989536693183e-02       1.691958472814e+04 
       2.504677995097e-02       1.776148135306e+04 
       3.153088536890e-02       1.775996282150e+04 
       3.960748451713e-02       1.688380574802e+04 
       4.826658167388e-02       1.566132427737e+04 
       5.470466314625e-02       1.483542707852e+04 
       5.961604309838e-02       1.428814420155e+04 
       6.381971182509e-02       1.386522176839e+04 
       6.764846326150e-02       1.350132560651e+04 
       7.126174264018e-02       1.316264834146e+04 
       7.474859396100e-02       1.283062472568e+04 
       7.816451345968e-02       1.249264055096e+04 
       8.154704181775e-02       1.214190277417e+04 
       8.492326544760e-02       1.177558995191e+04 
       8.831379120229e-02       1.139346507771e+04 
       9.173501505928e-02       1.099843306582e+04 
       9.520049541615e-02       1.059528916220e+04 
       9.872182475017e-02       1.019068708262e+04 
       1.023092047862e-01       9.792140254080e+03 
       1.059718383898e-01       9.407052403397e+03 
       1.097182037524e-01       9.042481927341e+03 
       1.135562504281e-01       8.703800210545e+03 
       1.174935419521e-01       8.394122784873e+03 
       1.215373609926e-01       8.113953631320e+03 
       1.256947876269e-01       7.860577039398e+03 
       1.299727579655e-01       7.628516977060e+03 
       1.343781081891e-01       7.409464365095e+03 
       1.389176076538e-01       7.193915825110e+03 
       1.435979837899e-01       6.972238713647e+03 
       1.484259408955e-01       6.736620036813e+03 
       1.534081745208e-01       6.482713938780e+03 
       1.585513828575e-01       6.210867353384e+03 
       1.638622763749e-01       5.926484217749e+03 
       1.693475868257e-01       5.639147303714e+03 
       1.750140766718e-01       5.360653544262e+03 
       1.808685499373e-01       5.102105132116e+03 
       1.869178654630e-01       4.870717141893e+03 
       1.931689535238e-01       4.668226361663e+03 
       1.996288367526e-01       4.490038070132e+03 
       2.063046563103e-01       4.325589198306e+03 
       2.132037042382e-01       4.161459929398e+03 
       2.203334629352e-01       3.986977619927e+03 
       2.277016527252e-01       3.798274180665e+03 
       2.353162885264e-01       3.599403620757e+03 
       2.431857467106e-01       3.400645623886e+03 
       2.513188433699e-01       3.214628115679e+03 
       2.597249253968e-01       3.050157415675e+03 
       2.684139760561e-01       2.907702184838e+03 
       2.773967371087e-01       2.779847058093e+03 
       2.866848500626e-01       2.654971408455e+03 
       2.962910198239e-01       2.523613980670e+03 
       3.062292049394e-01       2.384556612561e+03 
       3.165148398456e-01       2.245472107055e+03 
       3.271650961495e-01       2.116505433979e+03 
       3.381991921103e-01       2.003134622150e+03 
       3.496387623493e-01       1.901978315147e+03 
       3.615083036683e-01       1.804056856280e+03 
       3.738357181092e-01       1.703011570068e+03 
       3.866529816223e-01       1.600133223691e+03 
       3.999969768361e-01       1.502585157085e+03 
       4.139105427876e-01       1.414838502266e+03 
       4.284438151935e-01       1.334157691750e+03 
       4.436559612779e-01       1.254306465189e+03 
       4.596174587057e-01       1.173778690646e+03 
       4.764131377764e-01       1.096645114838e+03 
       4.941463148638e-01       1.025671506814e+03 
       5.129445196732e-01       9.579667511213e+02 
       5.329676069431e-01       8.903614948589e+02 
       5.544195337821e-01       8.249688245180e+02 
       5.775659494621e-01       7.633043424362e+02 
       6.027613345486e-01       7.026737521920e+02 
       6.304924831730e-01       6.430299348813e+02 
       6.614513119099e-01       5.852331183830e+02 
       6.966632702705e-01       5.275266789064e+02 
       7.377281067695e-01       4.701076691898e+02 
       7.873046854836e-01       4.116917121253e+02 
       8.501675125309e-01       3.513629043659e+02 
       9.356762007885e-01       2.875317805255e+02 
       1.063431001233e+00       2.189732736655e+02 
       1.270041941788e+00       1.488424483908e+02 
       1.583049870693e+00       9.107705195241e+01 
       1.992169862240e+00       5.385163980578e+01 
       2.507985283148e+00       3.143712763928e+01 
       3.157366390915e+00       1.815705613733e+01 
       3.974888783864e+00       1.038679516733e+01 
       5.004088499062e+00       5.890577270923e+00 
       6.299774174336e+00       3.314589589802e+00 
