# Matter power spectrum P(k) at redshift z=0
# for k=1.3998e-05 to 8.84363 h/Mpc,
# number of wavenumbers equal to 120
#    1:k (h/Mpc)              2:P (Mpc/h)^3        
       1.399797932422e-05       1.501456267336e+01 
       1.762241188504e-05       1.878721447762e+01 
       2.218530213917e-05       2.350779935842e+01 
       2.792964063134e-05       2.941447896975e+01 
       3.516133433307e-05       3.680526132985e+01 
       4.426549730449e-05       4.605299851157e+01 
       5.572695942233e-05       5.762417862964e+01 
       7.015608533880e-05       7.210240175733e+01 
       8.832127862501e-05       9.021770796524e+01 
       1.111899020632e-04       1.128831751519e+02 
       1.399797932422e-04       1.412405268090e+02 
       1.762241188504e-04       1.767168226337e+02 
       2.218530213917e-04       2.210946767005e+02 
       2.792964063134e-04       2.765987429422e+02 
       3.516133433307e-04       3.460013130619e+02 
       4.426549730449e-04       4.327497532372e+02 
       5.572695942233e-04       5.411176339571e+02 
       7.015608533880e-04       6.763802039341e+02 
       8.832127862501e-04       8.450126185408e+02 
       1.111899020632e-03       1.054904890631e+03 
       1.399797932422e-03       1.315574173293e+03 
       1.762241188504e-03       1.638280213130e+03 
       2.218530213917e-03       2.036035733481e+03 
       2.792964063134e-03       2.523633848224e+03 
       3.516133433307e-03       3.116785608586e+03 
       4.426549730449e-03       3.830966227830e+03 
       5.572695942233e-03       4.679232603759e+03 
       7.015608533880e-03       5.668671923056e+03 
       8.832127862501e-03       6.794571380019e+03 
       1.111899020632e-02       8.033102311137e+03 
       1.399797932422e-02       9.330487816406e+03 
       1.762241188504e-02       1.059079245684e+04 
       2.218530213802e-02       1.166799768961e+04 
       2.792963756623e-02       1.237662807106e+04 
       3.516015264788e-02       1.254372494227e+04 
       4.417161192856e-02       1.212861763656e+04 
       5.388239169495e-02       1.143098401268e+04 
       6.112858536006e-02       1.092618321738e+04 
       6.664373364763e-02       1.057694904548e+04 
       7.135773871151e-02       1.029675614630e+04 
       7.564812743307e-02       1.004761069928e+04 
       7.969525327964e-02       9.810021313864e+03 
       8.359962626115e-02       9.573438532010e+03 
       8.742379357379e-02       9.331004695879e+03 
       9.121001617032e-02       9.079141147554e+03 
       9.498875754211e-02       8.816899529060e+03 
       9.878317553398e-02       8.545012813401e+03 
       1.026116834479e-01       8.265754048473e+03 
       1.064894990272e-01       7.982986475919e+03 
       1.104296269468e-01       7.700824406290e+03 
       1.144435067435e-01       7.424146779218e+03 
       1.185414540770e-01       7.157531650205e+03 
       1.227329693350e-01       6.905175209426e+03 
       1.270269582096e-01       6.669581392507e+03 
       1.314318921290e-01       6.452097448868e+03 
       1.359559265207e-01       6.252091449292e+03 
       1.406069888366e-01       6.067108432254e+03 
       1.453928444742e-01       5.892914987657e+03 
       1.503211462930e-01       5.724085929414e+03 
       1.553994718396e-01       5.554605335420e+03 
       1.606353513432e-01       5.379122493839e+03 
       1.660362888461e-01       5.193732230902e+03 
       1.716097783689e-01       4.997277320106e+03 
       1.773633167017e-01       4.791503578771e+03 
       1.833044142100e-01       4.581061647941e+03 
       1.894406049168e-01       4.372582807634e+03 
       1.957794570360e-01       4.173166413137e+03 
       2.023285850836e-01       3.988680605962e+03 
       2.090956646624e-01       3.821924388329e+03 
       2.160884509901e-01       3.672016200662e+03 
       2.233148022323e-01       3.534261179211e+03 
       2.307827086899e-01       3.402046684957e+03 
       2.385003288885e-01       3.267965106196e+03 
       2.464760336256e-01       3.126779918820e+03 
       2.547184590548e-01       2.978355893891e+03 
       2.632365699380e-01       2.827450691337e+03 
       2.720397342821e-01       2.681222116287e+03 
       2.811378107205e-01       2.545876883332e+03 
       2.905412502070e-01       2.424321327669e+03 
       3.002612138979e-01       2.314852539486e+03 
       3.103097095163e-01       2.211730773637e+03 
       3.206997490736e-01       2.108639578157e+03 
       3.314455315948e-01       2.002465792894e+03 
       3.425626555204e-01       1.894683086124e+03 
       3.540683668199e-01       1.790322318142e+03 
       3.659818506477e-01       1.694285532855e+03 
       3.783245767575e-01       1.607240171229e+03 
       3.911207120781e-01       1.525795686293e+03 
       4.043976181439e-01       1.445481213264e+03 
       4.181864569211e-01       1.364570868809e+03 
       4.325229366263e-01       1.285407268135e+03 
       4.474482404058e-01       1.211135006298e+03 
       4.630101967244e-01       1.142527918335e+03 
       4.792647733734e-01       1.077055342545e+03 
       4.962780108462e-01       1.012497791389e+03 
       5.141285614612e-01       9.493326410349e+02 
       5.329110779632e-01       8.894506199252e+02 
       5.527408162463e-01       8.328546671263e+02 
       5.737600107083e-01       7.779810535050e+02 
       5.961469004724e-01       7.242790356696e+02 
       6.201288289067e-01       6.726613817323e+02 
       6.460017985578e-01       6.230015668709e+02 
       6.741606252212e-01       5.742673966978e+02 
       7.051472189380e-01       5.266928962932e+02 
       7.397313656361e-01       4.800333494135e+02 
       7.790530691223e-01       4.336514071651e+02 
       8.248891522834e-01       3.872604264377e+02 
       8.801894347744e-01       3.400642741562e+02 
       9.502436786135e-01       2.911484204115e+02 
       1.045406910994e+00       2.392510318561e+02 
       1.187355309216e+00       1.832806750195e+02 
       1.416796982083e+00       1.255970624180e+02 
       1.765272339707e+00       7.751560729586e+01 
       2.221427698819e+00       4.620470324323e+01 
       2.796602035284e+00       2.718912868952e+01 
       3.520713350700e+00       1.582874855518e+01 
       4.432315504835e+00       9.126829003596e+00 
       5.579954622126e+00       5.217071945830e+00 
       7.024746670453e+00       2.958911641530e+00 
       8.843632094849e+00       1.666223452327e+00 
