# Matter power spectrum P(k) at redshift z=0
# for k=1.19821e-05 to 9.52762 h/Mpc,
# number of wavenumbers equal to 121
#    1:k (h/Mpc)              2:P (Mpc/h)^3        
       1.198206980444e-05       3.292679841986e+01 
       1.508453216270e-05       4.082620591532e+01 
       1.899030086465e-05       5.062071330669e+01 
       2.390737233612e-05       6.276491392185e+01 
       3.009759856317e-05       7.782243833439e+01 
       3.789063166515e-05       9.649204391030e+01 
       4.770147907219e-05       1.196399484551e+02 
       6.005260418414e-05       1.483398558558e+02 
       7.560174945184e-05       1.839223898592e+02 
       9.517696356101e-05       2.280361129505e+02 
       1.198206980444e-04       2.827225544562e+02 
       1.508453216270e-04       3.505080772343e+02 
       1.899030086465e-04       4.345155503672e+02 
       2.390737233612e-04       5.385985538453e+02 
       3.009759856317e-04       6.674999447882e+02 
       3.789063166515e-04       8.270344025880e+02 
       4.770147907219e-04       1.024290845618e+03 
       6.005260418414e-04       1.267845375195e+03 
       7.560174945184e-04       1.567969302478e+03 
       9.517696356101e-04       1.936806048108e+03 
       1.198206980444e-03       2.388457462283e+03 
       1.508453216270e-03       2.938679953982e+03 
       1.899030086465e-03       3.604708391284e+03 
       2.390737233612e-03       4.403862518437e+03 
       3.009759856317e-03       5.351532878797e+03 
       3.789063166515e-03       6.457974320580e+03 
       4.770147907219e-03       7.723683461040e+03 
       6.005260418414e-03       9.132720713980e+03 
       7.560174945184e-03       1.064342050042e+04 
       9.517696356101e-03       1.217869997073e+04 
       1.198206980444e-02       1.361221460488e+04 
       1.508453216270e-02       1.475873553219e+04 
       1.899030086462e-02       1.537274014067e+04 
       2.390737218208e-02       1.518957901765e+04 
       3.009747476735e-02       1.403712134729e+04 
       3.787272285457e-02       1.204343932418e+04 
       4.708140653516e-02       9.887971832244e+03 
       5.494164756898e-02       8.579436556708e+03 
       6.062570906477e-02       7.927603715302e+03 
       6.529750093484e-02       7.525805681455e+03 
       6.946143244298e-02       7.230392635398e+03 
       7.334105144390e-02       6.980754986802e+03 
       7.705413340609e-02       6.744981822220e+03 
       8.067106436906e-02       6.505120563872e+03 
       8.423796366791e-02       6.251225772219e+03 
       8.778727068455e-02       5.978986414592e+03 
       9.134314832874e-02       5.688514704101e+03 
       9.492447886354e-02       5.383694197595e+03 
       9.854663588338e-02       5.070884730213e+03 
       1.022225881118e-01       4.758127472430e+03 
       1.059636165982e-01       4.454755396036e+03 
       1.097797971900e-01       4.169297719840e+03 
       1.136803345584e-01       3.909335259548e+03 
       1.176737989804e-01       3.680678225249e+03 
       1.217682974320e-01       3.486125807130e+03 
       1.259715990856e-01       3.325616618164e+03 
       1.302912283975e-01       3.196292343735e+03 
       1.347345346740e-01       3.092001507363e+03 
       1.393087442811e-01       3.004026574889e+03 
       1.440209998869e-01       2.922114562897e+03 
       1.488783899670e-01       2.835472688790e+03 
       1.538879710250e-01       2.735027043214e+03 
       1.590567844696e-01       2.614908417213e+03 
       1.643918697454e-01       2.474475258723e+03 
       1.699002750894e-01       2.318132376096e+03 
       1.755890671394e-01       2.155308734698e+03 
       1.814653405265e-01       1.997639880724e+03 
       1.875362285274e-01       1.856260658038e+03 
       1.938089158133e-01       1.738886251946e+03 
       2.002906543104e-01       1.647912675959e+03 
       2.069887831724e-01       1.580111547158e+03 
       2.139107538532e-01       1.526846050108e+03 
       2.210641612649e-01       1.475554308819e+03 
       2.284567820074e-01       1.414972207398e+03 
       2.360966206727e-01       1.339431548197e+03 
       2.439919652626e-01       1.250656703203e+03 
       2.521514528246e-01       1.156930228091e+03 
       2.605841465233e-01       1.069266601887e+03 
       2.692996255303e-01       9.968106570610e+02 
       2.783080893659e-01       9.421893297854e+02 
       2.876204786746e-01       9.006596900481e+02 
       2.972486148917e-01       8.628946941329e+02 
       3.072053619103e-01       8.196658085771e+02 
       3.175048137129e-01       7.673917962206e+02 
       3.281625130782e-01       7.106564172474e+02 
       3.391957079755e-01       6.578901738094e+02 
       3.506236542616e-01       6.151484042260e+02 
       3.624679759505e-01       5.820065885703e+02 
       3.747530978982e-01       5.522404206681e+02 
       3.875067705808e-01       5.196391906040e+02 
       4.007607132855e-01       4.830746879637e+02 
       4.145514112553e-01       4.471950319220e+02 
       4.289211153413e-01       4.167167585629e+02 
       4.439191113514e-01       3.914409799037e+02 
       4.596033534418e-01       3.670927699220e+02 
       4.760425962065e-01       3.410273047573e+02 
       4.933192211680e-01       3.150659495893e+02 
       5.115330478958e-01       2.922466535734e+02 
       5.308065699380e-01       2.719182737211e+02 
       5.512923001671e-01       2.513395698786e+02 
       5.731833207044e-01       2.307651379929e+02 
       5.967288459264e-01       2.121144749778e+02 
       6.222578946464e-01       1.943856472781e+02 
       6.502165942269e-01       1.766177950246e+02 
       6.812294429950e-01       1.598336159086e+02 
       7.162049117792e-01       1.434005168611e+02 
       7.565281760396e-01       1.272001155218e+02 
       8.044372750111e-01       1.111258486563e+02 
       8.638156932699e-01       9.489521014226e+01 
       9.419975710385e-01       7.815209128778e+01 
       1.054036281735e+00       6.058710198772e+01 
       1.230775580381e+00       4.243650824215e+01 
       1.512855406479e+00       2.619908176178e+01 
       1.901065372157e+00       1.520794757738e+01 
       2.393229780837e+00       8.704970254260e+00 
       3.012897513731e+00       4.938801318626e+00 
       3.793013243014e+00       2.779952577236e+00 
       4.775120758902e+00       1.553559440406e+00 
       6.011520867768e+00       8.624900647910e-01 
       7.568056383964e+00       4.759958714559e-01 
       9.527618499663e+00       2.612652122986e-01 
