# Matter power spectrum P(k) at redshift z=0
# for k=9.8333e-06 to 6.2111 h/Mpc,
# number of wavenumbers equal to 120
#    1:k (h/Mpc)              2:P (Mpc/h)^3        
       9.833303069478e-06       6.985681192857e+01 
       1.237939511604e-05       8.667588233892e+01 
       1.558473509422e-05       1.075443009559e+02 
       1.962001904620e-05       1.334369350733e+02 
       2.470014055714e-05       1.655632310352e+02 
       3.109563462227e-05       2.054236715145e+02 
       3.914708462185e-05       2.548796035294e+02 
       4.928325962810e-05       3.162398030660e+02 
       6.204394792187e-05       3.923674609021e+02 
       7.810870268687e-05       4.868122946650e+02 
       9.833303069478e-05       6.039731253947e+02 
       1.237939511604e-04       7.492970183139e+02 
       1.558473509422e-04       9.295214677758e+02 
       1.962001904620e-04       1.152965547042e+03 
       2.470014055714e-04       1.429873877882e+03 
       3.109563462227e-04       1.772812431183e+03 
       3.914708462185e-04       2.197106782998e+03 
       4.928325962810e-04       2.721301825762e+03 
       6.204394792187e-04       3.367608390050e+03 
       7.810870268687e-04       4.162279865376e+03 
       9.833303069478e-04       5.135713301903e+03 
       1.237939511604e-03       6.321921728296e+03 
       1.558473509422e-03       7.758123680542e+03 
       1.962001904620e-03       9.481405889037e+03 
       2.470014055714e-03       1.152447984648e+04 
       3.109563462227e-03       1.390858270431e+04 
       3.914708462185e-03       1.663321557824e+04 
       4.928325962810e-03       1.966084505751e+04 
       6.204394792187e-03       2.289686085040e+04 
       7.810870268687e-03       2.616767275710e+04 
       9.833303069478e-03       2.918726350835e+04 
       1.237939511604e-02       3.153829622877e+04 
       1.558473509408e-02       3.267495343733e+04 
       1.962001845616e-02       3.203670129586e+04 
       2.469982145257e-02       2.931238995321e+04 
       3.106220037725e-02       2.493555150485e+04 
       3.828669591711e-02       2.062367105059e+04 
       4.397716832515e-02       1.824365608975e+04 
       4.819462254495e-02       1.700307966880e+04 
       5.173794408930e-02       1.620533238618e+04 
       5.493309630994e-02       1.560060795796e+04 
       5.793044919007e-02       1.507789572549e+04 
       6.081168945423e-02       1.457715336160e+04 
       6.362671992894e-02       1.406251464210e+04 
       6.640878572745e-02       1.351611781107e+04 
       6.918158142245e-02       1.292872898932e+04 
       7.196295007725e-02       1.230236205381e+04 
       7.476696533041e-02       1.164569338634e+04 
       7.760517779003e-02       1.097314671015e+04 
       8.048739902373e-02       1.030272990027e+04 
       8.342221504292e-02       9.653254620198e+03 
       8.641733402137e-02       9.043927073976e+03 
       8.947982834322e-02       8.490665762388e+03 
       9.261630694996e-02       8.005208348792e+03 
       9.583304031573e-02       7.593565824390e+03 
       9.913605236577e-02       7.254840208125e+03 
       1.025311887857e-01       6.982010760588e+03 
       1.060241681305e-01       6.761233234468e+03 
       1.096206202016e-01       6.573284085097e+03 
       1.133261148955e-01       6.395737230193e+03 
       1.171461838957e-01       6.204751318009e+03 
       1.210863370268e-01       5.981843143531e+03 
       1.251520747175e-01       5.715039432097e+03 
       1.293488977783e-01       5.403944278838e+03 
       1.336823155371e-01       5.060268024160e+03 
       1.381578532705e-01       4.704741951268e+03 
       1.427810598072e-01       4.363189885356e+03 
       1.475575161321e-01       4.059907351214e+03 
       1.524928458007e-01       3.810288049492e+03 
       1.575927279522e-01       3.618298368146e+03 
       1.628629136999e-01       3.475959916890e+03 
       1.683092466721e-01       3.361797037544e+03 
       1.739376884710e-01       3.248371227142e+03 
       1.797543498224e-01       3.111870955312e+03 
       1.857655282053e-01       2.941826721381e+03 
       1.919777527805e-01       2.743854013908e+03 
       1.983978374968e-01       2.537328736412e+03 
       2.050329433503e-01       2.347355357786e+03 
       2.118906509132e-01       2.192917566840e+03 
       2.189790444575e-01       2.077588885371e+03 
       2.263068092944e-01       1.989171102792e+03 
       2.338833443445e-01       1.906099161301e+03 
       2.417188924951e-01       1.808299786540e+03 
       2.498246920141e-01       1.690367395205e+03 
       2.582131532356e-01       1.564429643616e+03 
       2.668980659827e-01       1.449616981033e+03 
       2.758948448527e-01       1.358402761645e+03 
       2.852208216973e-01       1.287545019896e+03 
       2.948955976073e-01       1.221993551460e+03 
       3.049414707498e-01       1.148474310076e+03 
       3.153839619629e-01       1.066367420383e+03 
       3.262524677615e-01       9.875620487144e+02 
       3.375810813666e-01       9.217783228043e+02 
       3.494096381298e-01       8.669616761594e+02 
       3.617850647709e-01       8.126932412884e+02 
       3.747631461985e-01       7.540778750287e+02 
       3.884108759520e-01       6.967088101838e+02 
       4.028096376260e-01       6.470466447616e+02 
       4.180595943830e-01       6.022401227082e+02 
       4.342858764254e-01       5.560035027240e+02 
       4.516475161706e-01       5.103713246382e+02 
       4.703507110035e-01       4.693827343312e+02 
       4.906691408966e-01       4.297394245103e+02 
       5.129762523197e-01       3.900787003795e+02 
       5.377987926397e-01       3.528434568814e+02 
       5.659101501244e-01       3.159368625289e+02 
       5.985030161839e-01       2.797232949465e+02 
       6.375316874097e-01       2.434704525986e+02 
       6.864457532760e-01       2.067686368568e+02 
       7.518850676691e-01       1.686942596752e+02 
       8.476485750904e-01       1.286392347707e+02 
       1.001024782834e+00       8.781251796175e+01 
       1.240359936861e+00       5.320213388586e+01 
       1.560172829420e+00       3.080212574512e+01 
       1.964121930134e+00       1.762765668345e+01 
       2.472682958186e+00       1.000042761196e+01 
       3.112923411353e+00       5.629282238846e+00 
       3.918938387521e+00       3.145868142553e+00 
       4.933651123306e+00       1.746773361541e+00 
       6.211098772057e+00       9.642026449306e-01 
