# Matter power spectrum P(k) at redshift z=0
# for k=1.23747e-05 to 7.81638 h/Mpc,
# number of wavenumbers equal to 120
#    1:k (h/Mpc)              2:P (Mpc/h)^3        
       1.237471489564e-05       2.352209910985e+01 
       1.557884304583e-05       2.942425847817e+01 
       1.961260139675e-05       3.680737604673e+01 
       2.469080228976e-05       4.604299992709e+01 
       3.108387844016e-05       5.759591881422e+01 
       3.913228446544e-05       7.204746037952e+01 
       4.926462733510e-05       9.012470474876e+01 
       6.202049125473e-05       1.127369360031e+02 
       7.807917249254e-05       1.410211131757e+02 
       9.829585438272e-05       1.763985504537e+02 
       1.237471489564e-04       2.206453358625e+02 
       1.557884304583e-04       2.759795682293e+02 
       1.961260139675e-04       3.451687598981e+02 
       2.469080228976e-04       4.316609468426e+02 
       3.108387844016e-04       5.397425777149e+02 
       3.913228446544e-04       6.747249962536e+02 
       4.926462733510e-04       8.431585878087e+02 
       6.202049125473e-04       1.053069715833e+03 
       7.807917249254e-04       1.314210394219e+03 
       9.829585438272e-04       1.638301421504e+03 
       1.237471489564e-03       2.039156320954e+03 
       1.557884304583e-03       2.532685065561e+03 
       1.961260139675e-03       3.136864992533e+03 
       2.469080228976e-03       3.870596814246e+03 
       3.108387844016e-03       4.752172058602e+03 
       3.913228446544e-03       5.796460244915e+03 
       4.926462733510e-03       7.010663358963e+03 
       6.202049125473e-03       8.387830360962e+03 
       7.807917249254e-03       9.897242014994e+03 
       9.829585438272e-03       1.147346664093e+04 
       1.237471489564e-02       1.300014588408e+04 
       1.557884304583e-02       1.429537184208e+04 
       1.961260139674e-02       1.510528395165e+04 
       2.469080218271e-02       1.513468043539e+04 
       3.108378328717e-02       1.415763284137e+04 
       3.911734232272e-02       1.224293046390e+04 
       4.870816747122e-02       1.004410555436e+04 
       5.707510280830e-02       8.658816435473e+03 
       6.309954139829e-02       7.983709007352e+03 
       6.802201355286e-02       7.583164144301e+03 
       7.239575496978e-02       7.300376831859e+03 
       7.646355282869e-02       7.069397182690e+03 
       8.035231094166e-02       6.855054507819e+03 
       8.413744359305e-02       6.636214889642e+03 
       8.786815603469e-02       6.401157993547e+03 
       9.157894259155e-02       6.143979537669e+03 
       9.529542607566e-02       5.863406732755e+03 
       9.903758285598e-02       5.562612812215e+03 
       1.028216446218e-01       5.247826789452e+03 
       1.066612801103e-01       4.927659771360e+03 
       1.105683613883e-01       4.612113347833e+03 
       1.145534784857e-01       4.311457989813e+03 
       1.186262951953e-01       4.034881012795e+03 
       1.227958010061e-01       3.789837044242e+03 
       1.270704929800e-01       3.580801267952e+03 
       1.314585090663e-01       3.409548002049e+03 
       1.359677269387e-01       3.274030151667e+03 
       1.406058378359e-01       3.168736917215e+03 
       1.453804019698e-01       3.085160416546e+03 
       1.502988901727e-01       3.012122790029e+03 
       1.553687152073e-01       2.937361983821e+03 
       1.605972553448e-01       2.849375213614e+03 
       1.659918722575e-01       2.739590985917e+03 
       1.715599249153e-01       2.604678388222e+03 
       1.773087809281e-01       2.447595517680e+03 
       1.832458266237e-01       2.277433156188e+03 
       1.893784770487e-01       2.107274362350e+03 
       1.957141870185e-01       1.950966749599e+03 
       2.022604643031e-01       1.819453904373e+03 
       2.090248860111e-01       1.718136979240e+03 
       2.160151192161e-01       1.646002838393e+03 
       2.232389468623e-01       1.594230770529e+03 
       2.307042999768e-01       1.549099870084e+03 
       2.384192972199e-01       1.496491517786e+03 
       2.463922928215e-01       1.426755091341e+03 
       2.546319339855e-01       1.338119746915e+03 
       2.631472289144e-01       1.238090723047e+03 
       2.719476267163e-01       1.140151820097e+03 
       2.810431106320e-01       1.057270350298e+03 
       2.904443062725e-01       9.956566508002e+02 
       3.001626069148e-01       9.527387287373e+02 
       3.102103183987e-01       9.181963007904e+02 
       3.206008268291e-01       8.790180554700e+02 
       3.313487931799e-01       8.278356492764e+02 
       3.424703800647e-01       7.672772394699e+02 
       3.539835174981e-01       7.074559594955e+02 
       3.659082165244e-01       6.585169162979e+02 
       3.782669423304e-01       6.228206668971e+02 
       3.910850621324e-01       5.941470895007e+02 
       4.043913881020e-01       5.630395180729e+02 
       4.182188424209e-01       5.251544634155e+02 
       4.326052810270e-01       4.850736171137e+02 
       4.475945259680e-01       4.504367143975e+02 
       4.632376753875e-01       4.236327607823e+02 
       4.795947879884e-01       3.995973633940e+02 
       4.967370800732e-01       3.727623652173e+02 
       5.147498356639e-01       3.440318191457e+02 
       5.337363267194e-01       3.185681024387e+02 
       5.538231933695e-01       2.973860779989e+02 
       5.751679829352e-01       2.761120206865e+02 
       5.979699638076e-01       2.535250684957e+02 
       6.224860539555e-01       2.330714379809e+02 
       6.490550073288e-01       2.144520627771e+02 
       6.781354521597e-01       1.951792233799e+02 
       7.103682131062e-01       1.768750365846e+02 
       7.466834439912e-01       1.592828256342e+02 
       7.884955203215e-01       1.415685959342e+02 
       8.380819762128e-01       1.241792867341e+02 
       8.993785912205e-01       1.064947052311e+02 
       9.797835351229e-01       8.821687584616e+01 
       1.094427214111e+00       6.897972450180e+01 
       1.274493133955e+00       4.893303961314e+01 
       1.563063646324e+00       3.063801742822e+01 
       1.963460675055e+00       1.797510524968e+01 
       2.471757436022e+00       1.039090003144e+01 
       3.111757847227e+00       5.953257745945e+00 
       3.917471028973e+00       3.383564187627e+00 
       4.931803828341e+00       1.909123783284e+00 
       6.208773165482e+00       1.070080074808e+00 
       7.816382314091e+00       5.962252677632e-01 
