# Matter power spectrum P(k) at redshift z=0
# for k=1.47214e-05 to 9.298 h/Mpc,
# number of wavenumbers equal to 120
#    1:k (h/Mpc)              2:P (Mpc/h)^3        
       1.472136566974e-05       1.328007422633e+01 
       1.853310133795e-05       1.658021386725e+01 
       2.333179223370e-05       2.070043776467e+01 
       2.937298614571e-05       2.584452252801e+01 
       3.697839867911e-05       3.226687369999e+01 
       4.655304578459e-05       4.028508983541e+01 
       5.860681233464e-05       5.029563329533e+01 
       7.378160535233e-05       6.279338033282e+01 
       9.288553790101e-05       7.839596194956e+01 
       1.169359640518e-04       9.787405865684e+01 
       1.472136566974e-04       1.221890076480e+02 
       1.853310133795e-04       1.525393525463e+02 
       2.333179223370e-04       1.904181802617e+02 
       2.937298614571e-04       2.376832050356e+02 
       3.697839867911e-04       2.966414748081e+02 
       4.655304578459e-04       3.701500566357e+02 
       5.860681233464e-04       4.617329686221e+02 
       7.378160535233e-04       5.757128914910e+02 
       9.288553790101e-04       7.173538023788e+02 
       1.169359640518e-03       8.930060443107e+02 
       1.472136566974e-03       1.110231574533e+03 
       1.853310133795e-03       1.377805297220e+03 
       2.333179223370e-03       1.705682958582e+03 
       2.937298614571e-03       2.104718442991e+03 
       3.697839867911e-03       2.585826885692e+03 
       4.655304578459e-03       3.158718473911e+03 
       5.860681233464e-03       3.829813638323e+03 
       7.378160535233e-03       4.599055138529e+03 
       9.288553790101e-03       5.455077426683e+03 
       1.169359640518e-02       6.369298118959e+03 
       1.472136566974e-02       7.287845751009e+03 
       1.853310133795e-02       8.123271065177e+03 
       2.333179223364e-02       8.750148015581e+03 
       2.937298582229e-02       9.017016946640e+03 
       3.697817202655e-02       8.794443768239e+03 
       4.652371774446e-02       8.077614268571e+03 
       5.768857477625e-02       7.144134212053e+03 
       6.694537944943e-02       6.511504210894e+03 
       7.368838307207e-02       6.152483389293e+03 
       7.927399115125e-02       5.905427158069e+03 
       8.427300638053e-02       5.708319950674e+03 
       8.894187931885e-02       5.533072786562e+03 
       9.341717068027e-02       5.365144757077e+03 
       9.778111891069e-02       5.195366622837e+03 
       1.020879199843e-01       5.019374957087e+03 
       1.063758682839e-01       4.834918849997e+03 
       1.106735954020e-01       4.641880832826e+03 
       1.150035472381e-01       4.442158228985e+03 
       1.193840491901e-01       4.238871230956e+03 
       1.238305969259e-01       4.036064442258e+03 
       1.283566973794e-01       3.838204725264e+03 
       1.329744357937e-01       3.649896212212e+03 
       1.376948690359e-01       3.475024585571e+03 
       1.425283048361e-01       3.316493546324e+03 
       1.474845038066e-01       3.175916748730e+03 
       1.525728277631e-01       3.053305633096e+03 
       1.578023498139e-01       2.946906557866e+03 
       1.631819366674e-01       2.853297631021e+03 
       1.687203104141e-01       2.767736988503e+03 
       1.744260949675e-01       2.684607707756e+03 
       1.803078509810e-01       2.598336906001e+03 
       1.863741021536e-01       2.504357979042e+03 
       1.926333552305e-01       2.400110250979e+03 
       1.990941156060e-01       2.285737461721e+03 
       2.057649001703e-01       2.164216094041e+03 
       2.126542488722e-01       2.040858625479e+03 
       2.197707363587e-01       1.922040945446e+03 
       2.271229849870e-01       1.813781728190e+03 
       2.347196804598e-01       1.719928335314e+03 
       2.425695913085e-01       1.641335855974e+03 
       2.506815934316e-01       1.575398945403e+03 
       2.590647008811e-01       1.517125767792e+03 
       2.677281040885e-01       1.459278718174e+03 
       2.766812167208e-01       1.395860569692e+03 
       2.859337323826e-01       1.324460969576e+03 
       2.954956924221e-01       1.247157034829e+03 
       3.053775661846e-01       1.169222762896e+03 
       3.155903451955e-01       1.096796981154e+03 
       3.261456529629e-01       1.034421261058e+03 
       3.370558723995e-01       9.827986604148e+02 
       3.483342932920e-01       9.383698315145e+02 
       3.599952828411e-01       8.954894685082e+02 
       3.720544830891e-01       8.494968171008e+02 
       3.845290401176e-01       7.992860845990e+02 
       3.974378713013e-01       7.481464552779e+02 
       4.108019787639e-01       7.010451318156e+02 
       4.246448196454e-01       6.606771858640e+02 
       4.389927470713e-01       6.259240699048e+02 
       4.538755401215e-01       5.928347297367e+02 
       4.693270470756e-01       5.582481683199e+02 
       4.853859744228e-01       5.224382310908e+02 
       5.020968655443e-01       4.882956520142e+02 
       5.195113291042e-01       4.581192864532e+02 
       5.376896003101e-01       4.309887374411e+02 
       5.567025519521e-01       4.043920747638e+02 
       5.766343222806e-01       3.773328317926e+02 
       5.975858028710e-01       3.512912872530e+02 
       6.196793476112e-01       3.275634426468e+02 
       6.430652515044e-01       3.053071297111e+02 
       6.679308542921e-01       2.831814251599e+02 
       6.945136396482e-01       2.616582226698e+02 
       7.231205991283e-01       2.415558578651e+02 
       7.541577565434e-01       2.220445737309e+02 
       7.881768241133e-01       2.028450860688e+02 
       8.259520734101e-01       1.843943822433e+02 
       8.686133519356e-01       1.661726805073e+02 
       9.178899517147e-01       1.481571042280e+02 
       9.765890887699e-01       1.300719539494e+02 
       1.049609952640e+00       1.116404426831e+02 
       1.146264975116e+00       9.242623356889e+01 
       1.285756967958e+00       7.201447064734e+01 
       1.507047274368e+00       5.069952290347e+01 
       1.857896889993e+00       3.162031677481e+01 
       2.335599062441e+00       1.865736653810e+01 
       2.940285341928e+00       1.085497858682e+01 
       3.701599729087e+00       6.253986952674e+00 
       4.660037963139e+00       3.571667895599e+00 
       5.866640211721e+00       2.023674825061e+00 
       7.385662444389e+00       1.138378396176e+00 
       9.297998134175e+00       6.361920692227e-01 
