# Matter power spectrum P(k) at redshift z=0
# for k=1.08866e-05 to 6.87691 h/Mpc,
# number of wavenumbers equal to 120
#    1:k (h/Mpc)              2:P (Mpc/h)^3        
       1.088660468797e-05       4.638174822391e+01 
       1.370542328985e-05       5.794776462796e+01 
       1.725410565899e-05       7.239790481177e+01 
       2.172163207188e-05       9.045130647314e+01 
       2.734591460093e-05       1.130063944652e+02 
       3.442646679987e-05       1.411855102570e+02 
       4.334035389264e-05       1.763906378142e+02 
       5.456227287160e-05       2.203729380745e+02 
       6.868983184330e-05       2.753193548229e+02 
       8.647537483940e-05       3.439604551938e+02 
       1.088660468797e-04       4.297042776576e+02 
       1.370542328985e-04       5.368019723027e+02 
       1.725410565899e-04       6.705515861285e+02 
       2.172163207188e-04       8.375466889412e+02 
       2.734591460093e-04       1.045975776295e+03 
       3.442646679987e-04       1.305976020645e+03 
       4.334035389264e-04       1.630040077584e+03 
       5.456227287160e-04       2.033467313130e+03 
       6.868983184330e-04       2.534841146453e+03 
       8.647537483940e-04       3.156497037473e+03 
       1.088660468797e-03       3.924894337727e+03 
       1.370542328985e-03       4.870317832629e+03 
       1.725410565899e-03       6.027199312652e+03 
       2.172163207188e-03       7.431939678701e+03 
       2.734591460093e-03       9.120079365720e+03 
       3.442646679987e-03       1.112118386270e+04 
       4.334035389264e-03       1.345086336431e+04 
       5.456227287160e-03       1.609848449720e+04 
       6.868983184330e-03       1.900958624368e+04 
       8.647537483940e-03       2.206504641179e+04 
       1.088660468797e-02       2.505208944818e+04 
       1.370542328985e-02       2.763316994102e+04 
       1.725410565868e-02       2.935228660185e+04 
       2.172163102302e-02       2.968766391554e+04 
       2.734541309692e-02       2.827341515540e+04 
       3.437894587646e-02       2.530066378808e+04 
       4.222971619106e-02       2.207471177299e+04 
       4.828055653219e-02       2.016676217050e+04 
       5.280715064251e-02       1.907570833380e+04 
       5.663473540216e-02       1.831680670198e+04 
       6.009813505806e-02       1.770682915415e+04 
       6.335378306783e-02       1.716066397486e+04 
       6.648746028716e-02       1.663077960596e+04 
       6.955192612343e-02       1.608974621896e+04 
       7.258251006523e-02       1.552290829665e+04 
       7.560449620773e-02       1.492368239400e+04 
       7.863698992196e-02       1.429399379139e+04 
       8.169510454281e-02       1.364066646663e+04 
       8.479127528770e-02       1.297562166436e+04 
       8.793608823350e-02       1.231362327775e+04 
       9.113882462277e-02       1.167088383867e+04 
       9.440783021607e-02       1.106322863789e+04 
       9.775077283739e-02       1.050407259204e+04 
       1.011748260104e-01       1.000343883434e+04 
       1.046868022664e-01       9.565952940312e+03 
       1.082932512729e-01       9.191158135689e+03 
       1.120005328003e-01       8.871888340042e+03 
       1.158148713332e-01       8.595758642649e+03 
       1.197423970847e-01       8.345382991440e+03 
       1.237891768262e-01       8.100707363213e+03 
       1.279612370729e-01       7.842583772672e+03 
       1.322645815675e-01       7.554717334104e+03 
       1.367052046242e-01       7.229292959460e+03 
       1.412891016266e-01       6.867829360876e+03 
       1.460222778095e-01       6.481785392707e+03 
       1.509107563421e-01       6.090597949328e+03 
       1.559605866591e-01       5.716934773245e+03 
       1.611778539470e-01       5.381453834544e+03 
       1.665686906602e-01       5.096842255554e+03 
       1.721392909285e-01       4.864624760104e+03 
       1.778959287047e-01       4.675053584097e+03 
       1.838449804907e-01       4.508659076026e+03 
       1.899929534828e-01       4.339757351882e+03 
       1.963465199772e-01       4.148608236760e+03 
       2.029125588959e-01       3.928459104984e+03 
       2.096982053326e-01       3.687856179339e+03 
       2.167109090789e-01       3.445723234803e+03 
       2.239585032041e-01       3.224275361297e+03 
       2.314492839172e-01       3.038490419454e+03 
       2.391921031773e-01       2.889052132023e+03 
       2.471964758399e-01       2.762160767015e+03 
       2.554727035745e-01       2.637692600074e+03 
       2.640320183842e-01       2.499479980731e+03 
       2.728867493521e-01       2.345591588529e+03 
       2.820505172909e-01       2.189341667133e+03 
       2.915384633608e-01       2.048040889183e+03 
       3.013675195633e-01       1.930227179970e+03 
       3.115567314771e-01       1.830433879118e+03 
       3.221276469102e-01       1.733890842071e+03 
       3.331047886400e-01       1.630417204850e+03 
       3.445162356108e-01       1.522159415478e+03 
       3.563943455941e-01       1.420462067689e+03 
       3.687766645631e-01       1.332492321337e+03 
       3.817070856468e-01       1.253966197902e+03 
       3.952373463284e-01       1.175537291964e+03 
       4.094289910613e-01       1.094820781359e+03 
       4.243559851452e-01       1.017759019129e+03 
       4.401082571512e-01       9.487374328338e+02 
       4.567965933296e-01       8.837764673241e+02 
       4.745595475817e-01       8.182162464118e+02 
       4.935734376804e-01       7.549031280519e+02 
       5.140672130630e-01       6.963210401960e+02 
       5.363452845474e-01       6.389359477370e+02 
       5.608238985965e-01       5.825076522815e+02 
       5.880916469650e-01       5.285087317043e+02 
       6.190153653186e-01       4.748547228935e+02 
       6.549368951222e-01       4.219691061497e+02 
       6.980651651920e-01       3.686247855098e+02 
       7.523212131253e-01       3.141559559098e+02 
       8.252984583850e-01       2.571789735705e+02 
       9.328265530667e-01       1.966539118202e+02 
       1.105710013197e+00       1.346240256007e+02 
       1.373048465706e+00       8.225708017817e+01 
       1.727413172365e+00       4.825409968023e+01 
       2.174669515115e+00       2.797294734658e+01 
       2.737746679967e+00       1.606529226517e+01 
       3.446618866456e+00       9.149402244544e+00 
       4.339036075750e+00       5.171313620149e+00 
       5.462522778453e+00       2.902743683304e+00 
       6.876908738300e+00       1.619176009546e+00 
