# Matter power spectrum P(k) at redshift z=0
# for k=1.21834e-05 to 7.69638 h/Mpc,
# number of wavenumbers equal to 120
#    1:k (h/Mpc)              2:P (Mpc/h)^3        
       1.218337023032e-05       4.402493198572e+01 
       1.533795438424e-05       5.463969578930e+01 
       1.930934053926e-05       6.781374409366e+01 
       2.430901948987e-05       8.416406767418e+01 
       3.060324237159e-05       1.044563959290e+02 
       3.852719950489e-05       1.296410166399e+02 
       4.850287050197e-05       1.608971271689e+02 
       6.106149621990e-05       1.996878902246e+02 
       7.687186927340e-05       2.478285485773e+02 
       9.677594968041e-05       3.075706479718e+02 
       1.218337023032e-04       3.817058976231e+02 
       1.533795438424e-04       4.736938541042e+02 
       1.930934053926e-04       5.878179821772e+02 
       2.430901948987e-04       7.293747949008e+02 
       3.060324237159e-04       9.049001587320e+02 
       3.852719950489e-04       1.122434952335e+03 
       4.850287050197e-04       1.391828688102e+03 
       6.106149621990e-04       1.725074257677e+03 
       7.687186927340e-04       2.136659942111e+03 
       9.677594968041e-04       2.643911536323e+03 
       1.218337023032e-03       3.267258475030e+03 
       1.533795438424e-03       4.030158031811e+03 
       1.930934053926e-03       4.958768903693e+03 
       2.430901948987e-03       6.081109618970e+03 
       3.060324237159e-03       7.424478824150e+03 
       3.852719950489e-03       9.011798723338e+03 
       4.850287050197e-03       1.085571616210e+04 
       6.106149621990e-03       1.294972367581e+04 
       7.687186927340e-03       1.525496783482e+04 
       9.677594968041e-03       1.768553326016e+04 
       1.218337023032e-02       2.008649682830e+04 
       1.533795438424e-02       2.221608208941e+04 
       1.930934053880e-02       2.374053097834e+04 
       2.430901800634e-02       2.427595719967e+04 
       3.060257513362e-02       2.353684480169e+04 
       3.846705694063e-02       2.160782950303e+04 
       4.716396204137e-02       1.936793783464e+04 
       5.380039890908e-02       1.796009856466e+04 
       5.878900983633e-02       1.709323935814e+04 
       6.302045881910e-02       1.645229617313e+04 
       6.685573716516e-02       1.591520910337e+04 
       7.046457424096e-02       1.542342750902e+04 
       7.394047316562e-02       1.494543940420e+04 
       7.734113551315e-02       1.446286499920e+04 
       8.070529895589e-02       1.396582420752e+04 
       8.406074353845e-02       1.345128909871e+04 
       8.742849647127e-02       1.292041235299e+04 
       9.082521558219e-02       1.237828318171e+04 
       9.426462412820e-02       1.183300803681e+04 
       9.775841741391e-02       1.129435524341e+04 
       1.013168588168e-01       1.077288335764e+04 
       1.049491846502e-01       1.027871516712e+04 
       1.086638867094e-01       9.820233361420e+03 
       1.124689138721e-01       9.403120523081e+03 
       1.163718185280e-01       9.029640281410e+03 
       1.203798644096e-01       8.697986118137e+03 
       1.245001067963e-01       8.402475781238e+03 
       1.287394525530e-01       8.133644374200e+03 
       1.331047052219e-01       7.879410409630e+03 
       1.376025989202e-01       7.626285585954e+03 
       1.422398238303e-01       7.362273153344e+03 
       1.470230454288e-01       7.078403077328e+03 
       1.519589191698e-01       6.771378680281e+03 
       1.570541020560e-01       6.444401440222e+03 
       1.623152623441e-01       6.106825012912e+03 
       1.677490885117e-01       5.772370288716e+03 
       1.733622985359e-01       5.455850133547e+03 
       1.791616504868e-01       5.169695840197e+03 
       1.851539554096e-01       4.919994252397e+03 
       1.913460934488e-01       4.705442734761e+03 
       1.977450341572e-01       4.516662812423e+03 
       2.043578619214e-01       4.340518579617e+03 
       2.111918074357e-01       4.160836775344e+03 
       2.182542861595e-01       3.966170570453e+03 
       2.255529447145e-01       3.755266798635e+03 
       2.330957162212e-01       3.536740218600e+03 
       2.408908856461e-01       3.324433873386e+03 
       2.489471663546e-01       3.131160784931e+03 
       2.572737892423e-01       2.963743315157e+03 
       2.658806060824e-01       2.819883444934e+03 
       2.747782090898e-01       2.688578811183e+03 
       2.839780692021e-01       2.557125343632e+03 
       2.934926962477e-01       2.418148573747e+03 
       3.033358250614e-01       2.273286154581e+03 
       3.135226327847e-01       2.132114745472e+03 
       3.240699941467e-01       2.004673409018e+03 
       3.349967835884e-01       1.893309575306e+03 
       3.463242358465e-01       1.792321118963e+03 
       3.580763803294e-01       1.692829007623e+03 
       3.702805696632e-01       1.590588066310e+03 
       3.829681297427e-01       1.489214202150e+03 
       3.961751683308e-01       1.395061233094e+03 
       4.099435930072e-01       1.310513292713e+03 
       4.243224090819e-01       1.231313571083e+03 
       4.393693971221e-01       1.152823479324e+03 
       4.551533131071e-01       1.075253806614e+03 
       4.717568203451e-01       1.002250774742e+03 
       4.892804654320e-01       9.346370429356e+02 
       5.078481755161e-01       8.696266069703e+02 
       5.276150255297e-01       8.057030885621e+02 
       5.487784846267e-01       7.446272598184e+02 
       5.715951606293e-01       6.867269436082e+02 
       5.964065418031e-01       6.300720454366e+02 
       6.236800673439e-01       5.750297534654e+02 
       6.540775596619e-01       5.216383175215e+02 
       6.885752165412e-01       4.688493998873e+02 
       7.286870591296e-01       4.165837334965e+02 
       7.769113438144e-01       3.638851884052e+02 
       8.376953374993e-01       3.099050729475e+02 
       9.196778396508e-01       2.533591796785e+02 
       1.040892221189e+00       1.932078255631e+02 
       1.236114054274e+00       1.316916126683e+02 
       1.536535647285e+00       8.021048892402e+01 
       1.933254043166e+00       4.697003174478e+01 
       2.433808873409e+00       2.717073726979e+01 
       3.063983807823e+00       1.556419452937e+01 
       3.857327076986e+00       8.837541373572e+00 
       4.856087078819e+00       4.978281554691e+00 
       6.113451425411e+00       2.784046716531e+00 
       7.696379353219e+00       1.546879689684e+00 
