# Matter power spectrum P(k) at redshift z=0
# for k=1.3164e-05 to 10.4675 h/Mpc,
# number of wavenumbers equal to 121
#    1:k (h/Mpc)              2:P (Mpc/h)^3        
       1.316399585106e-05       2.588134988970e+01 
       1.657248889766e-05       3.214375234515e+01 
       2.086352740994e-05       3.992140446247e+01 
       2.626562483603e-05       4.958091869670e+01 
       3.306646256273e-05       6.157758072700e+01 
       4.162820999836e-05       7.647677249557e+01 
       5.240681141444e-05       9.498055129021e+01 
       6.597626664075e-05       1.179606027388e+02 
       8.305919864935e-05       1.464990387685e+02 
       1.045653358629e-04       1.819388543337e+02 
       1.316399585106e-04       2.259461231986e+02 
       1.657248889766e-04       2.805863865916e+02 
       2.086352740994e-04       3.484178509505e+02 
       2.626562483603e-04       4.326039645509e+02 
       3.306646256273e-04       5.370473499354e+02 
       4.162820999836e-04       6.665455879482e+02 
       5.240681141444e-04       8.269666302386e+02 
       6.597626664075e-04       1.025437765979e+03 
       8.305919864935e-04       1.270537270952e+03 
       1.045653358629e-03       1.572469235978e+03 
       1.316399585106e-03       1.943175747479e+03 
       1.657248889766e-03       2.396173823172e+03 
       2.086352740994e-03       2.946397889082e+03 
       2.626562483603e-03       3.609302608150e+03 
       3.306646256273e-03       4.399248734169e+03 
       4.162820999836e-03       5.327012181989e+03 
       5.240681141444e-03       6.396045991938e+03 
       6.597626664075e-03       7.597061161984e+03 
       8.305919864935e-03       8.900101535606e+03 
       1.045653358629e-02       1.024612471580e+04 
       1.316399585106e-02       1.153538159973e+04 
       1.657248889766e-02       1.261645788183e+04 
       2.086352740991e-02       1.328485690765e+04 
       2.626562467859e-02       1.331129567177e+04 
       3.306633368190e-02       1.252756739680e+04 
       4.160928414529e-02       1.099870008106e+04 
       5.174270114928e-02       9.246313324536e+03 
       6.042663006572e-02       8.131166088539e+03 
       6.670094245753e-02       7.555662496990e+03 
       7.185237092496e-02       7.190083014269e+03 
       7.644121358872e-02       6.915147281429e+03 
       8.071533827496e-02       6.679578278982e+03 
       8.480514530803e-02       6.456697370574e+03 
       8.878848552442e-02       6.231693847696e+03 
       9.271633005164e-02       5.995813679003e+03 
       9.662450901013e-02       5.745460344506e+03 
       1.005396974961e-01       5.480782910906e+03 
       1.044827320276e-01       5.204594583747e+03 
       1.084705710713e-01       4.922193742120e+03 
       1.125175157415e-01       4.640317580152e+03 
       1.166360026603e-01       4.366438317479e+03 
       1.208371371684e-01       4.107846192273e+03 
       1.251310623840e-01       3.870861978215e+03 
       1.295272207660e-01       3.660463532385e+03 
       1.340345430815e-01       3.478887768899e+03 
       1.386615869977e-01       3.326271755850e+03 
       1.434166398713e-01       3.200010947146e+03 
       1.483077955623e-01       3.094907118668e+03 
       1.533430120809e-01       3.003536518248e+03 
       1.585301549165e-01       2.917095338673e+03 
       1.638770296152e-01       2.826580745045e+03 
       1.693914063137e-01       2.724323856445e+03 
       1.750810383706e-01       2.605689294452e+03 
       1.809536768569e-01       2.470191488873e+03 
       1.870170824183e-01       2.322025251268e+03 
       1.932790358614e-01       2.169026183778e+03 
       1.997473487106e-01       2.021102533658e+03 
       2.064298749199e-01       1.887769702230e+03 
       2.133345248835e-01       1.775421563358e+03 
       2.204692828611e-01       1.685976055327e+03 
       2.278422289207e-01       1.616324489820e+03 
       2.354615664863e-01       1.559145297396e+03 
       2.433356565764e-01       1.503494639717e+03 
       2.514730598176e-01       1.439819713031e+03 
       2.598825873389e-01       1.363493985773e+03 
       2.685733616893e-01       1.276525116885e+03 
       2.775548889946e-01       1.186136125046e+03 
       2.868371436913e-01       1.101771130301e+03 
       2.964306673599e-01       1.031024667584e+03 
       3.063466834519e-01       9.759106102710e+02 
       3.165972300877e-01       9.320377384309e+02 
       3.271953136278e-01       8.912321913440e+02 
       3.381550864301e-01       8.458181945882e+02 
       3.494920531494e-01       7.930163460857e+02 
       3.612233111923e-01       7.369897900270e+02 
       3.733678325900e-01       6.850582223197e+02 
       3.859467967498e-01       6.421254314052e+02 
       3.989839864636e-01       6.075607778734e+02 
       4.125062634708e-01       5.758440091876e+02 
       4.265441451852e-01       5.417602460752e+02 
       4.411325114818e-01       5.047100587691e+02 
       4.563114805632e-01       4.687099251504e+02 
       4.721275072037e-01       4.376999460983e+02 
       4.886347771146e-01       4.111972401583e+02 
       5.058970009697e-01       3.855315190202e+02 
       5.239897558343e-01       3.586081305810e+02 
       5.430035886923e-01       3.321495827053e+02 
       5.630482003887e-01       3.085745392046e+02 
       5.842581926713e-01       2.871712538171e+02 
       6.068011288369e-01       2.656873430734e+02 
       6.308891082223e-01       2.444436018136e+02 
       6.567958359232e-01       2.249697641577e+02 
       6.848825785281e-01       2.063305313495e+02 
       7.156390517371e-01       1.877981959074e+02 
       7.497505388398e-01       1.701875407011e+02 
       7.882135280006e-01       1.529119894086e+02 
       8.325466342852e-01       1.358772721092e+02 
       8.852019733384e-01       1.189269352041e+02 
       9.504312725612e-01       1.017764944884e+02 
       1.036257211185e+00       8.404890079930e+01 
       1.159135770058e+00       6.539364272742e+01 
       1.352823396769e+00       4.602897528776e+01 
       1.662199824501e+00       2.857953303356e+01 
       2.088604967476e+00       1.667367410220e+01 
       2.629317540755e+00       9.588050090884e+00 
       3.310114347078e+00       5.463413900507e+00 
       4.167187067298e+00       3.087684550135e+00 
       5.246177694722e+00       1.732109817456e+00 
       6.604546414673e+00       9.651336967884e-01 
       8.314631314806e+00       5.344734414380e-01 
       1.046750065191e+01       2.943236306648e-01 
