# Matter power spectrum P(k) at redshift z=0
# for k=1.59744e-05 to 10.0896 h/Mpc,
# number of wavenumbers equal to 120
#    1:k (h/Mpc)              2:P (Mpc/h)^3        
       1.597443863265e-05       1.498352292489e+01 
       2.011062673380e-05       1.865793430738e+01 
       2.531777904228e-05       2.323341126529e+01 
       3.187319540652e-05       2.893090517280e+01 
       4.012597565235e-05       3.602554045183e+01 
       5.051561042177e-05       4.485987915973e+01 
       6.359538565227e-05       5.586043181772e+01 
       8.006184707049e-05       6.955818725578e+01 
       1.007918937922e-04       8.661412074762e+01 
       1.268894763979e-04       1.078508509654e+02 
       1.597443863265e-04       1.342918474509e+02 
       2.011062673380e-04       1.672098407845e+02 
       2.531777904228e-04       2.081863104230e+02 
       3.187319540652e-04       2.591840478404e+02 
       4.012597565235e-04       3.226346951720e+02 
       5.051561042177e-04       4.015426544883e+02 
       6.359538565227e-04       4.996056776324e+02 
       8.006184707049e-04       6.213507353461e+02 
       1.007918937922e-03       7.722813552254e+02 
       1.268894763979e-03       9.590278436140e+02 
       1.597443863265e-03       1.189477606317e+03 
       2.011062673380e-03       1.472833552305e+03 
       2.531777904228e-03       1.819440614518e+03 
       3.187319540652e-03       2.240657873541e+03 
       4.012597565235e-03       2.748000237236e+03 
       5.051561042177e-03       3.351845795875e+03 
       6.359538565227e-03       4.059359425205e+03 
       8.006184707049e-03       4.871337326023e+03 
       1.007918937922e-02       5.777335188127e+03 
       1.268894763979e-02       6.749937999617e+03 
       1.597443863265e-02       7.736844915532e+03 
       2.011062673380e-02       8.652837157746e+03 
       2.531777904215e-02       9.376048142938e+03 
       3.187319480733e-02       9.758450788912e+03 
       4.012560971591e-02       9.670408411268e+03 
       5.047327789163e-02       9.094317488830e+03 
       6.239983576617e-02       8.277449453479e+03 
       7.201505921155e-02       7.697176553321e+03 
       7.908039238675e-02       7.338146906069e+03 
       8.497773379521e-02       7.072245848156e+03 
       9.027711348936e-02       6.848460935377e+03 
       9.523823406179e-02       6.643377686449e+03 
       1.000008668219e-01       6.444386020636e+03 
       1.046498282243e-01       6.244439749999e+03 
       1.092413361910e-01       6.039663760328e+03 
       1.138152963047e-01       5.828702186890e+03 
       1.184016582387e-01       5.612036387949e+03 
       1.230239770673e-01       5.391417711215e+03 
       1.277015373165e-01       5.170038693834e+03 
       1.324506850160e-01       4.951243080281e+03 
       1.372856980015e-01       4.738871057073e+03 
       1.422193740657e-01       4.536806818877e+03 
       1.472634396859e-01       4.348023030234e+03 
       1.524288406557e-01       4.174408491083e+03 
       1.577259526034e-01       4.017089138651e+03 
       1.631647357003e-01       3.875042883045e+03 
       1.687548495651e-01       3.746105823030e+03 
       1.745057392066e-01       3.626988001113e+03 
       1.804266995461e-01       3.512980796785e+03 
       1.865269239196e-01       3.399322528469e+03 
       1.928155405459e-01       3.281623240486e+03 
       1.993016400110e-01       3.156794753026e+03 
       2.059942961890e-01       3.023784586560e+03 
       2.129025826111e-01       2.883978300354e+03 
       2.200355860163e-01       2.740947492925e+03 
       2.274024186420e-01       2.599772569610e+03 
       2.350122307037e-01       2.465855168799e+03 
       2.428742244367e-01       2.343605702922e+03 
       2.509976710357e-01       2.235084975009e+03 
       2.593919317944e-01       2.139598812420e+03 
       2.680664847323e-01       2.053611920767e+03 
       2.770309579824e-01       1.971942720656e+03 
       2.862951712068e-01       1.889405080494e+03 
       2.958691863159e-01       1.801883044699e+03 
       3.057633687863e-01       1.708959936949e+03 
       3.159884609278e-01       1.613949542753e+03 
       3.265556685398e-01       1.522130294811e+03 
       3.374767625513e-01       1.437997590627e+03 
       3.487641974700e-01       1.363542012237e+03 
       3.604312487993e-01       1.297706935510e+03 
       3.724921720584e-01       1.236649254882e+03 
       3.849623866805e-01       1.175813177811e+03 
       3.978586889391e-01       1.112847986586e+03 
       4.111994992040e-01       1.048634121176e+03 
       4.250051503644e-01       9.863915613857e+02 
       4.392982262784e-01       9.295145011695e+02 
       4.541039617922e-01       8.787134925325e+02 
       4.694507194505e-01       8.317374677518e+02 
       4.853705628253e-01       7.857026568745e+02 
       5.018999529182e-01       7.392665075144e+02 
       5.190806030632e-01       6.937606673067e+02 
       5.369605402499e-01       6.512568893258e+02 
       5.555954384467e-01       6.123290656090e+02 
       5.750503148589e-01       5.755575777530e+02 
       5.954017171071e-01       5.394210038387e+02 
       6.167405844529e-01       5.041226545708e+02 
       6.391760499814e-01       4.707636392042e+02 
       6.628405808108e-01       4.394429531733e+02 
       6.878970606841e-01       4.093263896391e+02 
       7.145487585804e-01       3.799631074476e+02 
       7.430536995824e-01       3.518108877105e+02 
       7.737459544301e-01       3.249386445415e+02 
       8.070681804055e-01       2.987480376348e+02 
       8.436231925880e-01       2.732897039391e+02 
       8.842592198338e-01       2.485167077281e+02 
       9.302180176735e-01       2.240729440126e+02 
       9.834076881376e-01       1.998466528002e+02 
       1.046940882999e+00       1.754475649385e+02 
       1.126282232599e+00       1.504826319305e+02 
       1.231887935143e+00       1.243627625685e+02 
       1.385412802070e+00       9.651820417633e+01 
       1.630254111674e+00       6.749477624551e+01 
       2.015387992484e+00       4.191107630465e+01 
       2.534427822144e+00       2.474672052773e+01 
       3.190611233897e+00       1.441198915916e+01 
       4.016741427697e+00       8.308448058228e+00 
       5.056777855879e+00       4.746241341226e+00 
       6.366106144565e+00       2.689093643761e+00 
       8.014452799571e+00       1.512256592751e+00 
       1.008959829101e+01       8.447209210222e-01 
