# Matter power spectrum P(k) at redshift z=0
# for k=1.14405e-05 to 7.22681 h/Mpc,
# number of wavenumbers equal to 120
#    1:k (h/Mpc)              2:P (Mpc/h)^3        
       1.144049124960e-05       3.644887586301e+01 
       1.440272515753e-05       4.518701045403e+01 
       1.813195669990e-05       5.601995921647e+01 
       2.282678105505e-05       6.944986759121e+01 
       2.873721473967e-05       8.609923691320e+01 
       3.617800989995e-05       1.067397035665e+02 
       4.554541601119e-05       1.323276748557e+02 
       5.733828160723e-05       1.640485158781e+02 
       7.218461978395e-05       2.033710007490e+02 
       9.087505218672e-05       2.521146144088e+02 
       1.144049124960e-04       3.125322218205e+02 
       1.440272515753e-04       3.874113108498e+02 
       1.813195669990e-04       4.801970268178e+02 
       2.282678105505e-04       5.951399906019e+02 
       2.873721473967e-04       7.374708860783e+02 
       3.617800989995e-04       9.136013729888e+02 
       4.554541601119e-04       1.131346680958e+03 
       5.733828160723e-04       1.400159545072e+03 
       7.218461978395e-04       1.731358080422e+03 
       9.087505218672e-04       2.138318191273e+03 
       1.144049124960e-03       2.636563233146e+03 
       1.440272515753e-03       3.243602937537e+03 
       1.813195669990e-03       3.978290573604e+03 
       2.282678105505e-03       4.859606004199e+03 
       2.873721473967e-03       5.904575169758e+03 
       3.617800989995e-03       7.124610890863e+03 
       4.554541601119e-03       8.520557200870e+03 
       5.733828160723e-03       1.007567513338e+04 
       7.218461978395e-03       1.174631192098e+04 
       9.087505218672e-03       1.345256748621e+04 
       1.144049124960e-02       1.506605205845e+04 
       1.440272515753e-02       1.640169930561e+04 
       1.813195669957e-02       1.722558339350e+04 
       2.282677993803e-02       1.729334788437e+04 
       2.873668249929e-02       1.645720277627e+04 
       3.612771961404e-02       1.484431777871e+04 
       4.437328321851e-02       1.310485133959e+04 
       5.072470011788e-02       1.203017217549e+04 
       5.547744101329e-02       1.137122730596e+04 
       5.949696936334e-02       1.088065398580e+04 
       6.313439940360e-02       1.046599006951e+04 
       6.655383446738e-02       1.008600034188e+04 
       6.984528493782e-02       9.718703055453e+03 
       7.306412213123e-02       9.352788877537e+03 
       7.624742994462e-02       8.982320172157e+03 
       7.942175113342e-02       8.606705963251e+03 
       8.260714409182e-02       8.227292094998e+03 
       8.581947735711e-02       7.848516914904e+03 
       8.907180845768e-02       7.475744637573e+03 
       9.237525392996e-02       7.114857860013e+03 
       9.573956061177e-02       6.772031610987e+03 
       9.917349333008e-02       6.452171161018e+03 
       1.026851052446e-01       6.158958374439e+03 
       1.062819306167e-01       5.893923420473e+03 
       1.099711247521e-01       5.656357573418e+03 
       1.137595670151e-01       5.443144295803e+03 
       1.176539374289e-01       5.249060781199e+03 
       1.216607740092e-01       5.067162501772e+03 
       1.257865158199e-01       4.889833778824e+03 
       1.300375353407e-01       4.709743037599e+03 
       1.344201628063e-01       4.521279207985e+03 
       1.389407045628e-01       4.321531639075e+03 
       1.436054570760e-01       4.111356440183e+03 
       1.484207179547e-01       3.895239326500e+03 
       1.533927951725e-01       3.680170851550e+03 
       1.585280155577e-01       3.474295913548e+03 
       1.638327335465e-01       3.284758201207e+03 
       1.693133411498e-01       3.115940212968e+03 
       1.749762800556e-01       2.968086406438e+03 
       1.808280567695e-01       2.837312476438e+03 
       1.868752616853e-01       2.716349305004e+03 
       1.931245929669e-01       2.597271514423e+03 
       1.995828861250e-01       2.474047208037e+03 
       2.062571501694e-01       2.343838679795e+03 
       2.131546112452e-01       2.209014637483e+03 
       2.202827646920e-01       2.076119902228e+03 
       2.276494365410e-01       1.952509144967e+03 
       2.352628555730e-01       1.842382708260e+03 
       2.431317372308e-01       1.745192472243e+03 
       2.512653809253e-01       1.656978427163e+03 
       2.596737826157e-01       1.572259037519e+03 
       2.683677650096e-01       1.486427121399e+03 
       2.773591283613e-01       1.398740206429e+03 
       2.866608256753e-01       1.312595465772e+03 
       2.962871672308e-01       1.232095305644e+03 
       3.062540608008e-01       1.159573225843e+03 
       3.165792958766e-01       1.093848392566e+03 
       3.272828827919e-01       1.031149567032e+03 
       3.383874611175e-01       9.690644423544e+02 
       3.499187964279e-01       9.078907642408e+02 
       3.619063910466e-01       8.497972582031e+02 
       3.743842434672e-01       7.963189742186e+02 
       3.873918040079e-01       7.465536013431e+02 
       4.009751927776e-01       6.987501932486e+02 
       4.151887731541e-01       6.521249289958e+02 
       4.300972144525e-01       6.077412240275e+02 
       4.457782391427e-01       5.660655135460e+02 
       4.623263461194e-01       5.265320299791e+02 
       4.798579551760e-01       4.884597639472e+02 
       4.985186703512e-01       4.518705525467e+02 
       5.184937878839e-01       4.170381550390e+02 
       5.400239260374e-01       3.836284249807e+02 
       5.634290265313e-01       3.512637392193e+02 
       5.891465986579e-01       3.200346279698e+02 
       6.177953452884e-01       2.896173101959e+02 
       6.502865274405e-01       2.597899505359e+02 
       6.880309082250e-01       2.302913909267e+02 
       7.333511842515e-01       2.007134534238e+02 
       7.903710046193e-01       1.705406521706e+02 
       8.670775447607e-01       1.391006296623e+02 
       9.801226450715e-01       1.058442121232e+02 
       1.161894715812e+00       7.196922616542e+01 
       1.442902250787e+00       4.360514287514e+01 
       1.815304244183e+00       2.535661400330e+01 
       2.285317227563e+00       1.457151619714e+01 
       2.877043895665e+00       8.296541515402e+00 
       3.621983671090e+00       4.684609204125e+00 
       4.559807284638e+00       2.625255897680e+00 
       5.740457263515e+00       1.461134618883e+00 
       7.226807524358e+00       8.082072938492e-01 
