# Matter power spectrum P(k) at redshift z=0
# for k=1.39462e-05 to 8.8111 h/Mpc,
# number of wavenumbers equal to 120
#    1:k (h/Mpc)              2:P (Mpc/h)^3        
       1.394615623488e-05       2.479782647358e+01 
       1.755717048095e-05       3.088754593151e+01 
       2.210316807767e-05       3.847271918910e+01 
       2.782623997413e-05       4.792057777733e+01 
       3.503116061812e-05       5.968850571457e+01 
       4.410161830679e-05       7.434617065658e+01 
       5.552064798766e-05       9.260304456253e+01 
       6.989635463095e-05       1.153426658990e+02 
       8.799429703668e-05       1.436652123736e+02 
       1.107782566324e-04       1.789403882076e+02 
       1.394615623488e-04       2.228729869663e+02 
       1.755717048095e-04       2.775839354462e+02 
       2.210316807767e-04       3.457101167596e+02 
       2.782623997413e-04       4.305264736277e+02 
       3.503116061812e-04       5.360939696780e+02 
       4.410161830679e-04       6.674364281646e+02 
       5.552064798767e-04       8.307478030551e+02 
       6.989635463095e-04       1.033629095283e+03 
       8.799429703668e-04       1.285350746791e+03 
       1.107782566324e-03       1.597128971095e+03 
       1.394615623488e-03       1.982383945461e+03 
       1.755717048095e-03       2.456903492841e+03 
       2.210316807767e-03       3.038608872334e+03 
       2.782623997413e-03       3.747596454890e+03 
       3.503116061812e-03       4.604777924135e+03 
       4.410161830679e-03       5.630008488464e+03 
       5.552064798767e-03       6.838842542475e+03 
       6.989635463095e-03       8.237403864441e+03 
       8.799429703668e-03       9.814229129333e+03 
       1.107782566324e-02       1.153046762372e+04 
       1.394615623488e-02       1.330546731967e+04 
       1.755717048095e-02       1.500216593175e+04 
       2.210316807628e-02       1.641939844974e+04 
       2.782623645261e-02       1.730872257447e+04 
       3.502985307259e-02       1.744954323336e+04 
       4.400089134556e-02       1.680669179044e+04 
       5.360216091622e-02       1.580691245805e+04 
       6.073228905906e-02       1.508843485780e+04 
       6.617583635443e-02       1.458366985005e+04 
       7.083712013350e-02       1.417362789958e+04 
       7.508373013582e-02       1.380646257980e+04 
       7.909195479077e-02       1.345671733390e+04 
       8.296031369117e-02       1.310926257779e+04 
       8.675024013414e-02       1.275670552318e+04 
       9.050330730802e-02       1.239404045559e+04 
       9.424952068811e-02       1.202061025278e+04 
       9.801171395496e-02       1.163758205715e+04 
       1.018080589973e-01       1.124825148381e+04 
       1.056535857213e-01       1.085725625037e+04 
       1.095611469313e-01       1.047026806377e+04 
       1.135420551325e-01       1.009299881491e+04 
       1.176065164882e-01       9.730815907828e+03 
       1.217639344750e-01       9.388311255393e+03 
       1.260231270130e-01       9.068116965952e+03 
       1.303924844430e-01       8.770960984867e+03 
       1.348800860098e-01       8.495349503699e+03 
       1.394937865773e-01       8.237390913834e+03 
       1.442412815740e-01       7.991424059389e+03 
       1.491301557796e-01       7.750545515531e+03 
       1.541679200004e-01       7.507548104834e+03 
       1.593620386530e-01       7.256419786625e+03 
       1.647199505867e-01       6.993664107663e+03 
       1.702490850209e-01       6.718784939275e+03 
       1.759568741685e-01       6.435201459307e+03 
       1.818507639212e-01       6.149433818929e+03 
       1.879382238408e-01       5.869713100843e+03 
       1.942267576245e-01       5.604210502922e+03 
       2.007239151577e-01       5.358902990413e+03 
       2.074373072394e-01       5.135661383211e+03 
       2.143746240433e-01       4.931930477477e+03 
       2.215436583636e-01       4.741112413719e+03 
       2.289523346876e-01       4.554753886241e+03 
       2.366087451333e-01       4.365548153263e+03 
       2.445211932989e-01       4.168721459854e+03 
       2.526982470945e-01       3.965643490091e+03 
       2.611488016798e-01       3.763093774462e+03 
       2.698821537150e-01       3.569693782219e+03 
       2.789080882772e-01       3.391438222877e+03 
       2.882369800034e-01       3.229606889137e+03 
       2.978799103251e-01       3.080778231827e+03 
       3.078488030811e-01       2.938109065763e+03 
       3.181565813730e-01       2.795193519500e+03 
       3.288173492953e-01       2.650193605984e+03 
       3.398466032021e-01       2.506205279648e+03 
       3.512614785228e-01       2.368740531985e+03 
       3.630810399367e-01       2.242071933261e+03 
       3.753266250933e-01       2.125507927988e+03 
       3.880222552434e-01       2.014469550919e+03 
       4.011951304308e-01       1.904998545636e+03 
       4.148762327272e-01       1.796460529311e+03 
       4.291010690407e-01       1.691913211302e+03 
       4.439105962796e-01       1.594004355163e+03 
       4.593523876271e-01       1.502318091026e+03 
       4.754821217226e-01       1.414061913298e+03 
       4.923655103843e-01       1.327653916136e+03 
       5.100808311520e-01       1.244212155194e+03 
       5.287223083381e-01       1.165142656832e+03 
       5.484047073428e-01       1.089725201538e+03 
       5.692697012161e-01       1.016623072529e+03 
       5.914948889781e-01       9.456933542555e+02 
       6.153068911647e-01       8.775540166344e+02 
       6.410009116435e-01       8.117218865020e+02 
       6.689709251364e-01       7.473912580233e+02 
       6.997580543989e-01       6.847203279128e+02 
       7.341315965624e-01       6.231657670857e+02 
       7.732319705642e-01       5.621675268090e+02 
       8.188388368282e-01       5.011730380722e+02 
       8.739112193990e-01       4.392232656033e+02 
       9.437650693733e-01       3.751021254900e+02 
       1.038826383278e+00       3.071830902109e+02 
       1.180931294591e+00       2.341481365296e+02 
       1.410789638252e+00       1.593578494950e+02 
       1.758717000463e+00       9.771345217094e+01 
       2.213254726139e+00       5.791964483172e+01 
       2.786314019419e+00       3.389805619225e+01 
       3.507761508884e+00       1.962923908141e+01 
       4.416010102045e+00       1.125857003191e+01 
       5.559427336204e+00       6.402194802664e+00 
       6.998904348570e+00       3.612354228453e+00 
       8.811098539132e+00       2.023821251461e+00 
