# Matter power spectrum P(k) at redshift z=0
# for k=1.283e-05 to 8.1059 h/Mpc,
# number of wavenumbers equal to 120
#    1:k (h/Mpc)              2:P (Mpc/h)^3        
       1.282997859299e-05       3.796355140164e+01 
       1.615198608348e-05       4.703233063493e+01 
       2.033414573144e-05       5.826745308878e+01 
       2.559917278844e-05       7.218636302530e+01 
       3.222744914428e-05       8.943011192792e+01 
       4.057195468504e-05       1.107928117239e+02 
       5.107706475915e-05       1.372581372562e+02 
       6.430221478516e-05       1.700444978201e+02 
       8.095169222768e-05       2.106608622523e+02 
       1.019121424732e-04       2.609756802713e+02 
       1.282997859299e-04       3.233018431951e+02 
       1.615198608348e-04       4.005010257206e+02 
       2.033414573144e-04       4.961112942189e+02 
       2.559917278844e-04       6.145020016845e+02 
       3.222744914428e-04       7.610597270756e+02 
       4.057195468504e-04       9.424080046382e+02 
       5.107706475915e-04       1.166661161024e+03 
       6.430221478516e-04       1.443709023915e+03 
       8.095169222768e-04       1.785524429422e+03 
       1.019121424732e-03       2.206475625716e+03 
       1.282997859299e-03       2.723597342509e+03 
       1.615198608348e-03       3.356618127862e+03 
       2.033414573144e-03       4.127780249621e+03 
       2.559917278844e-03       5.061510261142e+03 
       3.222744914428e-03       6.182468110971e+03 
       4.057195468504e-03       7.512965287885e+03 
       5.107706475915e-03       9.068518383481e+03 
       6.430221478516e-03       1.085096379881e+04 
       8.095169222768e-03       1.283783698741e+04 
       1.019121424732e-02       1.496969394785e+04 
       1.282997859299e-02       1.713209182373e+04 
       1.615198608348e-02       1.913705760465e+04 
       2.033414573018e-02       2.071670600943e+04 
       2.559916957148e-02       2.155031453642e+04 
       3.222625246244e-02       2.137262698893e+04 
       4.047962727076e-02       2.019403556405e+04 
       4.931584917230e-02       1.866809298934e+04 
       5.587935234571e-02       1.764877362596e+04 
       6.088954189735e-02       1.696527465101e+04 
       6.517935928127e-02       1.642876466849e+04 
       6.908735837323e-02       1.596035200288e+04 
       7.277587151189e-02       1.552137999484e+04 
       7.633560635147e-02       1.509005899880e+04 
       7.982311926746e-02       1.465359753817e+04 
       8.327668018201e-02       1.420536465783e+04 
       8.672390871721e-02       1.374286745228e+04 
       9.018582186471e-02       1.326793251926e+04 
       9.367914498101e-02       1.278387592711e+04 
       9.721771101878e-02       1.229703735343e+04 
       1.008133488153e-01       1.181498080809e+04 
       1.044764693238e-01       1.134561773479e+04 
       1.082164650956e-01       1.089670854721e+04 
       1.120419898049e-01       1.047468681527e+04 
       1.159611581199e-01       1.008388932842e+04 
       1.199816911206e-01       9.725923675139e+03 
       1.241110235205e-01       9.399237076321e+03 
       1.283563834854e-01       9.099340461314e+03 
       1.327248524151e-01       8.818679822858e+03 
       1.372234098493e-01       8.547907811350e+03 
       1.418589672269e-01       8.276832803751e+03 
       1.466383932756e-01       7.996358368716e+03 
       1.515685331786e-01       7.700252210786e+03 
       1.566562232437e-01       7.386709416962e+03 
       1.619083025224e-01       7.058971983569e+03 
       1.673316226426e-01       6.724924330741e+03 
       1.729330570040e-01       6.395660690526e+03 
       1.787195104059e-01       6.082766576608e+03 
       1.846979301370e-01       5.795636587995e+03 
       1.908753195219e-01       5.538394489391e+03 
       1.972587549043e-01       5.309224493185e+03 
       2.038554070332e-01       5.099995967260e+03 
       2.106725678083e-01       4.899849308067e+03 
       2.177176833426e-01       4.696595581460e+03 
       2.249983943036e-01       4.482018151615e+03 
       2.325225845196e-01       4.256186999088e+03 
       2.402984388835e-01       4.027111856932e+03 
       2.483345116664e-01       3.806327935737e+03 
       2.566398064837e-01       3.603478414162e+03 
       2.652238693516e-01       3.422942722957e+03 
       2.740968965478e-01       3.261669302990e+03 
       2.832698593825e-01       3.110210502212e+03 
       2.927546485124e-01       2.958649555495e+03 
       3.025642411407e-01       2.802218794888e+03 
       3.127128953909e-01       2.643457996766e+03 
       3.232163773862e-01       2.490448448438e+03 
       3.340922282180e-01       2.350732078398e+03 
       3.453600801756e-01       2.225017690870e+03 
       3.570420345317e-01       2.107825771246e+03 
       3.691631171192e-01       1.992207748869e+03 
       3.817518333026e-01       1.875673132750e+03 
       3.948408513469e-01       1.761971255831e+03 
       4.084678535398e-01       1.655939477132e+03 
       4.226766091137e-01       1.558560323033e+03 
       4.375183442082e-01       1.465837147600e+03 
       4.530535152395e-01       1.374444964587e+03 
       4.693541386224e-01       1.285244115898e+03 
       4.865069009917e-01       1.201081286333e+03 
       5.046173854177e-01       1.121885512664e+03 
       5.238159277454e-01       1.045244227569e+03 
       5.442659119690e-01       9.703947800608e+02 
       5.661758156439e-01       8.987594425512e+02 
       5.898172024520e-01       8.300900398977e+02 
       6.155524870363e-01       7.628583240025e+02 
       6.438794277442e-01       6.974831388483e+02 
       6.755056431496e-01       6.335892873412e+02 
       7.114800668449e-01       5.702973983357e+02 
       7.534394933748e-01       5.072534963951e+02 
       8.041051998245e-01       4.433862622387e+02 
       8.683655776400e-01       3.775110242439e+02 
       9.558071682980e-01       3.080170754972e+02 
       1.086507470156e+00       2.336659247102e+02 
       1.297911474043e+00       1.580085604804e+02 
       1.617959336821e+00       9.613640046342e+01 
       2.036115111905e+00       5.653907786093e+01 
       2.563309097869e+00       3.284025859634e+01 
       3.227014947307e+00       1.887730850121e+01 
       4.062571121401e+00       1.075023070960e+01 
       5.114474021953e+00       6.070656330417e+00 
       6.438741314198e+00       3.402092870267e+00 
       8.105895060413e+00       1.893447039736e+00 
