# Matter power spectrum P(k) at redshift z=0
# for k=1.81214e-05 to 11.4464 h/Mpc,
# number of wavenumbers equal to 120
#    1:k (h/Mpc)              2:P (Mpc/h)^3        
       1.812136651442e-05       9.986934120791e+00 
       2.281344880144e-05       1.248251029482e+01 
       2.872043042680e-05       1.560168212410e+01 
       3.615687970197e-05       1.950027338067e+01 
       4.551881466799e-05       2.437303229587e+01 
       5.730479250028e-05       3.046335603702e+01 
       7.214245949620e-05       3.807543496715e+01 
       9.082197552910e-05       4.758940956946e+01 
       1.143380929429e-04       5.948029338893e+01 
       1.439431307419e-04       7.434156157136e+01 
       1.812136651442e-04       9.291452404794e+01 
       2.281344880144e-04       1.161248169603e+02 
       2.872043042680e-04       1.451275852244e+02 
       3.615687970197e-04       1.813631370258e+02 
       4.551881466799e-04       2.266249713851e+02 
       5.730479250028e-04       2.831420052886e+02 
       7.214245949620e-04       3.536764628378e+02 
       9.082197552910e-04       4.416381524979e+02 
       1.143380929429e-03       5.512146613589e+02 
       1.439431307419e-03       6.875142738985e+02 
       1.812136651442e-03       8.567102441195e+02 
       2.281344880144e-03       1.066152910676e+03 
       2.872043042680e-03       1.324307734285e+03 
       3.615687970197e-03       1.640947096003e+03 
       4.551881466799e-03       2.026559094331e+03 
       5.730479250028e-03       2.491705782227e+03 
       7.214245949620e-03       3.045719980101e+03 
       9.082197552910e-03       3.694594067600e+03 
       1.143380929429e-02       4.437315970068e+03 
       1.439431307419e-02       5.261394372119e+03 
       1.812136651442e-02       6.135755819093e+03 
       2.281344880144e-02       7.003059431016e+03 
       2.872043042647e-02       7.773168319322e+03 
       3.615687841910e-02       8.326258091338e+03 
       4.551815002025e-02       8.540590949686e+03 
       5.723755005896e-02       8.361572504949e+03 
       7.046876940446e-02       7.928989294022e+03 
       8.080947772048e-02       7.577349778661e+03 
       8.849792447040e-02       7.335656548507e+03 
       9.497206027036e-02       7.143527545815e+03 
       1.008171156869e-01       6.973789754069e+03 
       1.063042602868e-01       6.812841346863e+03 
       1.115812871196e-01       6.652987086799e+03 
       1.167386970705e-01       6.489685175406e+03 
       1.218368898532e-01       6.320468681072e+03 
       1.269189755890e-01       6.144405681786e+03 
       1.320174568460e-01       5.961850221602e+03 
       1.371579959426e-01       5.774193599029e+03 
       1.423616731032e-01       5.583667412514e+03 
       1.476464083558e-01       5.393014472859e+03 
       1.530278936330e-01       5.205378735031e+03 
       1.585202244206e-01       5.023755689249e+03 
       1.641363397116e-01       4.850848759620e+03 
       1.698883354205e-01       4.688724532899e+03 
       1.757876917396e-01       4.537761054943e+03 
       1.818454404058e-01       4.398404677091e+03 
       1.880722890304e-01       4.268973874647e+03 
       1.944787141342e-01       4.146896061148e+03 
       2.010750310090e-01       4.028759283842e+03 
       2.078714462347e-01       3.910662051611e+03 
       2.148780971693e-01       3.789100586125e+03 
       2.221050817234e-01       3.661396154455e+03 
       2.295624810623e-01       3.526547315880e+03 
       2.372603774341e-01       3.385446114695e+03 
       2.452088690297e-01       3.240905041077e+03 
       2.534180835939e-01       3.097101524818e+03 
       2.618981923857e-01       2.958662412678e+03 
       2.706594260112e-01       2.829575406379e+03 
       2.797120936077e-01       2.711960220382e+03 
       2.890666068250e-01       2.605565810929e+03 
       2.987335100312e-01       2.507668488183e+03 
       3.087235181587e-01       2.413999266368e+03 
       3.190475635971e-01       2.319926732237e+03 
       3.297168535523e-01       2.221688181354e+03 
       3.407429393143e-01       2.118702405019e+03 
       3.521377989413e-01       2.013719797743e+03 
       3.639139349727e-01       1.911356863711e+03 
       3.760844889617e-01       1.815802066363e+03 
       3.886633748840e-01       1.729239051963e+03 
       4.016654338621e-01       1.650973179895e+03 
       4.151066131890e-01       1.577555903301e+03 
       4.290041733673e-01       1.504791895880e+03 
       4.433769278747e-01       1.430336203819e+03 
       4.582455216841e-01       1.354776131536e+03 
       4.736327563117e-01       1.281124001142e+03 
       4.895639714742e-01       1.212725522896e+03 
       5.060674964940e-01       1.150438104716e+03 
       5.231751886749e-01       1.092290581744e+03 
       5.409230813557e-01       1.035398064216e+03 
       5.593521718118e-01       9.782943252055e+02 
       5.785093894400e-01       9.222184690671e+02 
       5.984487989755e-01       8.692525039963e+02 
       6.192331137478e-01       8.201422641217e+02 
       6.409356231232e-01       7.734766177388e+02 
       6.636426809127e-01       7.276538834822e+02 
       6.874569651066e-01       6.827552261611e+02 
       7.125018160750e-01       6.399866945242e+02 
       7.389271110553e-01       5.995257563068e+02 
       7.669173732728e-01       5.604413679640e+02 
       7.967032087731e-01       5.222051371525e+02 
       8.285778321919e-01       4.853234439990e+02 
       8.629216136535e-01       4.498763161344e+02 
       9.002397133117e-01       4.151668904836e+02 
       9.412219373785e-01       3.812249536300e+02 
       9.868421029904e-01       3.479815235103e+02 
       1.038531510957e+00       3.149717451971e+02 
       1.098500330134e+00       2.820027036617e+02 
       1.170375869496e+00       2.485286016342e+02 
       1.260573259776e+00       2.139492582518e+02 
       1.381466649119e+00       1.773777341813e+02 
       1.558801134459e+00       1.379409165254e+02 
       1.843220870971e+00       9.657486682737e+01 
       2.285688091528e+00       6.039047197925e+01 
       2.875238074370e+00       3.612031106423e+01 
       3.619678926620e+00       2.130207385517e+01 
       4.556905703127e+00       1.242456055035e+01 
       5.736804388790e+00       7.175111298290e+00 
       7.222208827540e+00       4.106764454514e+00 
       9.092222222274e+00       2.331648432140e+00 
       1.144642960530e+01       1.314189131228e+00 
