# Matter power spectrum P(k) at redshift z=0
# for k=9.59187e-06 to 7.62689 h/Mpc,
# number of wavenumbers equal to 121
#    1:k (h/Mpc)              2:P (Mpc/h)^3        
       9.591874077543e-06       6.967173009367e+01 
       1.207545402295e-05       8.636264644836e+01 
       1.520209592844e-05       1.070520358129e+02 
       1.913830487685e-05       1.326976484947e+02 
       2.409369834813e-05       1.644865860964e+02 
       3.033216911456e-05       2.038901145701e+02 
       3.818593849316e-05       2.527314746928e+02 
       4.807324834225e-05       3.132697802269e+02 
       6.052063396555e-05       3.883035385182e+02 
       7.619096403713e-05       4.812981565428e+02 
       9.591874077543e-05       5.965423126818e+02 
       1.207545402295e-04       7.393386209889e+02 
       1.520209592844e-04       9.162338788964e+02 
       1.913830487685e-04       1.135292945360e+03 
       2.409369834813e-04       1.406416951530e+03 
       3.033216911456e-04       1.741699872252e+03 
       3.818593849316e-04       2.155806445198e+03 
       4.807324834225e-04       2.666340280033e+03 
       6.052063396555e-04       3.294156088543e+03 
       7.619096403713e-04       4.063547010272e+03 
       9.591874077543e-04       5.002159088145e+03 
       1.207545402295e-03       6.140045678003e+03 
       1.520209592844e-03       7.508507797492e+03 
       1.913830487685e-03       9.136543166955e+03 
       2.409369834813e-03       1.104571769197e+04 
       3.033216911456e-03       1.324267854044e+04 
       3.818593849316e-03       1.570911389854e+04 
       4.807324834225e-03       1.838758753045e+04 
       6.052063396555e-03       2.116483895556e+04 
       7.619096403713e-03       2.385713302317e+04 
       9.591874077543e-03       2.617967958573e+04 
       1.207545402295e-02       2.775371883328e+04 
       1.520209592841e-02       2.810676177815e+04 
       1.913830470956e-02       2.679085847640e+04 
       2.409357397566e-02       2.363906080194e+04 
       3.031528219791e-02       1.916512026911e+04 
       3.763362645673e-02       1.491987544042e+04 
       4.377722805735e-02       1.263122435749e+04 
       4.823755457714e-02       1.157904211105e+04 
       5.191996253970e-02       1.097025530910e+04 
       5.520982347408e-02       1.054201476139e+04 
       5.827925408710e-02       1.018422974681e+04 
       6.121948661655e-02       9.838833289911e+03 
       6.408528165524e-02       9.475647750190e+03 
       6.691263765260e-02       9.077431627601e+03 
       6.972694080188e-02       8.637660957677e+03 
       7.254714079313e-02       8.160458499612e+03 
       7.538807285361e-02       7.654329480262e+03 
       7.826183443630e-02       7.133625786550e+03 
       8.117864442154e-02       6.615676033505e+03 
       8.414740226026e-02       6.118210327839e+03 
       8.717606460748e-02       5.657731566811e+03 
       9.027190635180e-02       5.247738749384e+03 
       9.344170581436e-02       4.897505384824e+03 
       9.669187866207e-02       4.611067471097e+03 
       1.000285761866e-01       4.386927078420e+03 
       1.034577582293e-01       4.218005472847e+03 
       1.069852476937e-01       4.092386774649e+03 
       1.106167714603e-01       3.993554785322e+03 
       1.143579911413e-01       3.902030572883e+03 
       1.182145262039e-01       3.798113983846e+03 
       1.221919713882e-01       3.665406033764e+03 
       1.262959099435e-01       3.494409550561e+03 
       1.305319239431e-01       3.284957379995e+03 
       1.349056027572e-01       3.047194030736e+03 
       1.394225506541e-01       2.799335287564e+03 
       1.440883944251e-01       2.562916595873e+03 
       1.489087918830e-01       2.357215306318e+03 
       1.538894420572e-01       2.194504391008e+03 
       1.590360978895e-01       2.077405752597e+03 
       1.643545822216e-01       1.998599293911e+03 
       1.698508078601e-01       1.942144475566e+03 
       1.755308024986e-01       1.885690214105e+03 
       1.814007392792e-01       1.809927087731e+03 
       1.874669737912e-01       1.706395005733e+03 
       1.937360883295e-01       1.579849520287e+03 
       2.002149442947e-01       1.445668881889e+03 
       2.069107437023e-01       1.323220085187e+03 
       2.138311009056e-01       1.227051595709e+03 
       2.209841258366e-01       1.160143733782e+03 
       2.283785203502e-01       1.113226054824e+03 
       2.360236896384e-01       1.070155949946e+03 
       2.439298712042e-01       1.015811406205e+03 
       2.521082845719e-01       9.455513991938e+02 
       2.605713058273e-01       8.683655181794e+02 
       2.693326722903e-01       7.984715073483e+02 
       2.784077242249e-01       7.449299674822e+02 
       2.878136926236e-01       7.058965058986e+02 
       2.975700449729e-01       6.706990710782e+02 
       3.076989047869e-01       6.297034550456e+02 
       3.182255660354e-01       5.821111794078e+02 
       3.291791310061e-01       5.359950679935e+02 
       3.405933106093e-01       4.984345380859e+02 
       3.525074411357e-01       4.682946574448e+02 
       3.649677933576e-01       4.386552408571e+02 
       3.780292823639e-01       4.059625665680e+02 
       3.917577357841e-01       3.735264268997e+02 
       4.062329544067e-01       3.458462200715e+02 
       4.215529204583e-01       3.214543373722e+02 
       4.378397066741e-01       2.962354126413e+02 
       4.552479721049e-01       2.710624118574e+02 
       4.739775097082e-01       2.486827620055e+02 
       4.942923578107e-01       2.273287516681e+02 
       5.165509645921e-01       2.058743590268e+02 
       5.412558168149e-01       1.858323201225e+02 
       5.691391734513e-01       1.661677450274e+02 
       6.013199378281e-01       1.468984890256e+02 
       6.396107418321e-01       1.278082880547e+02 
       6.871671156440e-01       1.086244824639e+02 
       7.499703047880e-01       8.891053428204e+01 
       8.403297631577e-01       6.834039069739e+01 
       9.833337354090e-01       4.729832692422e+01 
       1.210746647320e+00       2.883458148230e+01 
       1.521801046783e+00       1.658349869097e+01 
       1.915788482981e+00       9.417891526549e+00 
       2.411834638750e+00       5.305526938396e+00 
       3.036319915682e+00       2.966988555999e+00 
       3.822500300189e+00       1.648328682579e+00 
       4.812242764499e+00       9.101926451177e-01 
       6.058254703950e+00       4.998493535924e-01 
       7.626890797925e+00       2.731058460552e-01 
