# Matter power spectrum P(k) at redshift z=0
# for k=1.13683e-05 to 9.03965 h/Mpc,
# number of wavenumbers equal to 121
#    1:k (h/Mpc)              2:P (Mpc/h)^3        
       1.136828943383e-05       2.706785340722e+01 
       1.431182845688e-05       3.385037227475e+01 
       1.801752453361e-05       4.233234144886e+01 
       2.268271949299e-05       5.293964169682e+01 
       2.855585197832e-05       6.620460475434e+01 
       3.594968771094e-05       8.279311990214e+01 
       4.525797540536e-05       1.035375631879e+02 
       5.697641532417e-05       1.294785961803e+02 
       7.172905712453e-05       1.619169105754e+02 
       9.030153277811e-05       2.024777148368e+02 
       1.136828943383e-04       2.531907066112e+02 
       1.431182845688e-04       3.165886733686e+02 
       1.801752453361e-04       3.958284039240e+02 
       2.268271949299e-04       4.948369576141e+02 
       2.855585197832e-04       6.184855635631e+02 
       3.594968771094e-04       7.727907998187e+02 
       4.525797540536e-04       9.651382423363e+02 
       5.697641532417e-04       1.204517462274e+03 
       7.172905712453e-04       1.501749879329e+03 
       9.030153277811e-04       1.869678179506e+03 
       1.136828943383e-03       2.323246326506e+03 
       1.431182845688e-03       2.879312845876e+03 
       1.801752453361e-03       3.555997544355e+03 
       2.268271949299e-03       4.371372612681e+03 
       2.855585197832e-03       5.341145062970e+03 
       3.594968771094e-03       6.475208505872e+03 
       4.525797540536e-03       7.772542390700e+03 
       5.697641532417e-03       9.214564842752e+03 
       7.172905712453e-03       1.075674574088e+04 
       9.030153277811e-03       1.232098148386e+04 
       1.136828943383e-02       1.378560526201e+04 
       1.431182845688e-02       1.498340136341e+04 
       1.801752453349e-02       1.570714093203e+04 
       2.268271896306e-02       1.574922747068e+04 
       2.855554601103e-02       1.498808349193e+04 
       3.591587474245e-02       1.353278147843e+04 
       4.434296962927e-02       1.190932726811e+04 
       5.106296513059e-02       1.085846206993e+04 
       5.602003820892e-02       1.021454256473e+04 
       6.017023781445e-02       9.733023020306e+03 
       6.390566772552e-02       9.324782332893e+03 
       6.740599755571e-02       8.951478700683e+03 
       7.076834317097e-02       8.593801900677e+03 
       7.405181972597e-02       8.241983199289e+03 
       7.729570199088e-02       7.892403629575e+03 
       8.052792093672e-02       7.544187603418e+03 
       8.376947171706e-02       7.199309306692e+03 
       8.703688861897e-02       6.861268327142e+03 
       9.034372369971e-02       6.534083389650e+03 
       9.370147536227e-02       6.222093301143e+03 
       9.712019573336e-02       5.928974270428e+03 
       1.006089015149e-01       5.657528893303e+03 
       1.041758597207e-01       5.409103178008e+03 
       1.078287909821e-01       5.183350336817e+03 
       1.115750168860e-01       4.978168243653e+03 
       1.154215682933e-01       4.789800029221e+03 
       1.193752658106e-01       4.613364361193e+03 
       1.234427799886e-01       4.443152965863e+03 
       1.276306765197e-01       4.273701680152e+03 
       1.319454502142e-01       4.100616413460e+03 
       1.363935505470e-01       3.921335285226e+03 
       1.409814009135e-01       3.735688806589e+03 
       1.457154132954e-01       3.546177641087e+03 
       1.506019997496e-01       3.357396206056e+03 
       1.556475819402e-01       3.175035267488e+03 
       1.608585998139e-01       3.004292045443e+03 
       1.662415204375e-01       2.848716519385e+03 
       1.718028479702e-01       2.709156796581e+03 
       1.775491357115e-01       2.583671657965e+03 
       1.834870011447e-01       2.467798355710e+03 
       1.896231448867e-01       2.356072170954e+03 
       1.959643744421e-01       2.243813143848e+03 
       2.025176336583e-01       2.128631923035e+03 
       2.092900387825e-01       2.011136072330e+03 
       2.162889220370e-01       1.895018694679e+03 
       2.235218836692e-01       1.784607453094e+03 
       2.309968534948e-01       1.683524012708e+03 
       2.387221630674e-01       1.592513027858e+03 
       2.467066297682e-01       1.509057579217e+03 
       2.549596543521e-01       1.429563841746e+03 
       2.634913338223e-01       1.351653468863e+03 
       2.723125919662e-01       1.274392825649e+03 
       2.814353305051e-01       1.198564667972e+03 
       2.908726046341e-01       1.126538769822e+03 
       3.006388278220e-01       1.060001169211e+03 
       3.107500121817e-01       9.985334529541e+02 
       3.212240526365e-01       9.407105115485e+02 
       3.320810656559e-01       8.848388924562e+02 
       3.433437967666e-01       8.304321060431e+02 
       3.550381156966e-01       7.785413278687e+02 
       3.671936244177e-01       7.297875130414e+02 
       3.798444122699e-01       6.841726973775e+02 
       3.930300049679e-01       6.408462931794e+02 
       4.067965724120e-01       5.991851435985e+02 
       4.211984867205e-01       5.593502557140e+02 
       4.363003613598e-01       5.217171176626e+02 
       4.521797622363e-01       4.860245681822e+02 
       4.689308748817e-01       4.519046996868e+02 
       4.866695605111e-01       4.192607244748e+02 
       5.055404772500e-01       3.881217888484e+02 
       5.257273542259e-01       3.583231738996e+02 
       5.474682256281e-01       3.296875166959e+02 
       5.710787398533e-01       3.020898499143e+02 
       5.969891444754e-01       2.754292309473e+02 
       6.258055145502e-01       2.494823599293e+02 
       6.584162990205e-01       2.240866741187e+02 
       6.961889592893e-01       1.989886729402e+02 
       7.413587653375e-01       1.738605511474e+02 
       7.978597352871e-01       1.482876229922e+02 
       8.732399377850e-01       1.216986438565e+02 
       9.831572245404e-01       9.357262438943e+01 
       1.158807883857e+00       6.462810668147e+01 
       1.434117736571e+00       3.962857230615e+01 
       1.803667861151e+00       2.317254692690e+01 
       2.270656375534e+00       1.338613090038e+01 
       2.858586935786e+00       7.664069811680e+00 
       3.598747735255e+00       4.352758640617e+00 
       4.530554974549e+00       2.454205215692e+00 
       5.703630786990e+00       1.374629146306e+00 
       7.180445737233e+00       7.653354982214e-01 
       9.039645606612e+00       4.237845503042e-01 
