# Matter power spectrum P(k) at redshift z=0
# for k=1.13629e-05 to 7.17778 h/Mpc,
# number of wavenumbers equal to 120
#    1:k (h/Mpc)              2:P (Mpc/h)^3        
       1.136285004690e-05       2.846638175366e+01 
       1.430498067445e-05       3.548640031153e+01 
       1.800890368629e-05       4.423758202458e+01 
       2.267186648922e-05       5.514681213883e+01 
       2.854218885609e-05       6.874622446797e+01 
       3.593248685916e-05       8.569913077596e+01 
       4.523632081595e-05       1.068322929343e+02 
       5.694915381128e-05       1.331761405424e+02 
       7.169473691319e-05       1.660147666963e+02 
       9.025832619191e-05       2.069480609779e+02 
       1.136285004690e-04       2.579687309847e+02 
       1.430498067445e-04       3.215575193082e+02 
       1.800890368629e-04       4.008003382132e+02 
       2.267186648922e-04       4.995313088576e+02 
       2.854218885609e-04       6.225054972067e+02 
       3.593248685916e-04       7.756041702408e+02 
       4.523632081595e-04       9.660731933157e+02 
       5.694915381128e-04       1.202791808877e+03 
       7.169473691319e-04       1.496564394269e+03 
       9.025832619191e-04       1.860419178482e+03 
       1.136285004690e-03       2.309764894767e+03 
       1.430498067445e-03       2.862531113702e+03 
       1.800890368629e-03       3.539322146398e+03 
       2.267186648922e-03       4.362318846493e+03 
       2.854218885609e-03       5.353964054631e+03 
       3.593248685916e-03       6.534296102485e+03 
       4.523632081595e-03       7.916649527958e+03 
       5.694915381128e-03       9.500787805883e+03 
       7.169473691319e-03       1.126250238390e+04 
       9.025832619191e-03       1.314080154056e+04 
       1.136285004690e-02       1.501872770313e+04 
       1.430498067445e-02       1.670533122493e+04 
       1.800890368596e-02       1.792365125777e+04 
       2.267186536417e-02       1.834760073339e+04 
       2.854165474060e-02       1.771714572704e+04 
       3.588216945455e-02       1.608603864708e+04 
       4.406693396899e-02       1.419594181088e+04 
       5.036768128602e-02       1.303694327159e+04 
       5.508384660913e-02       1.236072623886e+04 
       5.907318901953e-02       1.188714227641e+04 
       6.268366609431e-02       1.150702518810e+04 
       6.607796712130e-02       1.116925299291e+04 
       6.934535152509e-02       1.084408796179e+04 
       7.254073961327e-02       1.051415831848e+04 
       7.570091882572e-02       1.016933766065e+04 
       7.885222294203e-02       9.804668512037e+03 
       8.201455445458e-02       9.419927176103e+03 
       8.520365992816e-02       9.018394998489e+03 
       8.843249749479e-02       8.606416653500e+03 
       9.171209978461e-02       8.192458596519e+03 
       9.505214060819e-02       7.786426217259e+03 
       9.846131953865e-02       7.398305422666e+03 
       1.019476301032e-01       7.036889944189e+03 
       1.055185510255e-01       6.709247109992e+03 
       1.091811850641e-01       6.419685026999e+03 
       1.129423612171e-01       6.169106340683e+03 
       1.168087107214e-01       5.954407596204e+03 
       1.207867239367e-01       5.768885193107e+03 
       1.248827930641e-01       5.602607785486e+03 
       1.291032442603e-01       5.443319125242e+03 
       1.334543617862e-01       5.278626160819e+03 
       1.379424062196e-01       5.097492281409e+03 
       1.425736283547e-01       4.893151396673e+03 
       1.473542801407e-01       4.664515916223e+03 
       1.522906238339e-01       4.417052589986e+03 
       1.573889404260e-01       4.161956835710e+03 
       1.626555383348e-01       3.913610133391e+03 
       1.680967633028e-01       3.686316967017e+03 
       1.737190104164e-01       3.490000817627e+03 
       1.795287391441e-01       3.328215321551e+03 
       1.855324922776e-01       3.197028887097e+03 
       1.917369196513e-01       3.084310719228e+03 
       1.981488075165e-01       2.973812320757e+03 
       2.047751144466e-01       2.851534277855e+03 
       2.116230146721e-01       2.710258123154e+03 
       2.186999497811e-01       2.552456945345e+03 
       2.260136897904e-01       2.389212321788e+03 
       2.335724047034e-01       2.236060567703e+03 
       2.413847478400e-01       2.105234106871e+03 
       2.494599524656e-01       1.999743599430e+03 
       2.578079435883e-01       1.912801403147e+03 
       2.664394672535e-01       1.830803059439e+03 
       2.753662402936e-01       1.740653943840e+03 
       2.846011243153e-01       1.638373147138e+03 
       2.941583288066e-01       1.531130945560e+03 
       3.040536496935e-01       1.431300011061e+03 
       3.143047516033e-01       1.347693675199e+03 
       3.249315046536e-01       1.278571317458e+03 
       3.359563900447e-01       1.214166980012e+03 
       3.474049934250e-01       1.145137143178e+03 
       3.593066114720e-01       1.070685415874e+03 
       3.716950061506e-01       9.986887137643e+02 
       3.846093538956e-01       9.362781632846e+02 
       3.980954553624e-01       8.822724987120e+02 
       4.122072983359e-01       8.292611178045e+02 
       4.270091066070e-01       7.734368087761e+02 
       4.425780689161e-01       7.187999936245e+02 
       4.590080375920e-01       6.701783599901e+02 
       4.764146392089e-01       6.254993631165e+02 
       4.949424905236e-01       5.800058053959e+02 
       5.147756384006e-01       5.351317146854e+02 
       5.361530893875e-01       4.940378993145e+02 
       5.593926588780e-01       4.540876470916e+02 
       5.849289757013e-01       4.141635984192e+02 
       6.133767156787e-01       3.762145908491e+02 
       6.456412917700e-01       3.384068726453e+02 
       6.831245720877e-01       3.010214873808e+02 
       7.281349310005e-01       2.632647904986e+02 
       7.847712823158e-01       2.246615821620e+02 
       8.609743309284e-01       1.841767833254e+02 
       9.733004266780e-01       1.410646325933e+02 
       1.153935416251e+00       9.675781890935e+01 
       1.433105952170e+00       5.926140834261e+01 
       1.802988898735e+00       3.484304739614e+01 
       2.269813398720e+00       2.023615424347e+01 
       2.857525732329e+00       1.163910037102e+01 
       3.597411759274e+00       6.636094454964e+00 
       4.528873080437e+00       3.753844766413e+00 
       5.701513407753e+00       2.108139248412e+00 
       7.177780114706e+00       1.176260789009e+00 
