# Matter power spectrum P(k) at redshift z=0
# for k=1.00264e-05 to 6.33498 h/Mpc,
# number of wavenumbers equal to 120
#    1:k (h/Mpc)              2:P (Mpc/h)^3        
       1.002635792035e-05       6.833239622569e+01 
       1.262243677367e-05       8.513653460232e+01 
       1.589070641313e-05       1.060730398831e+02 
       2.000521411486e-05       1.321580631841e+02 
       2.518507241757e-05       1.646574820204e+02 
       3.170612766436e-05       2.051483546662e+02 
       3.991564982625e-05       2.555951086827e+02 
       5.025082589455e-05       3.184445940237e+02 
       6.326204168229e-05       3.967437838831e+02 
       7.964219187582e-05       4.942861049009e+02 
       1.002635792035e-04       6.157919923871e+02 
       1.262243677367e-04       7.671313373523e+02 
       1.589070641313e-04       9.555953719990e+02 
       2.000521411486e-04       1.190225387279e+03 
       2.518507241757e-04       1.482203732278e+03 
       3.170612766436e-04       1.845307577762e+03 
       3.991564982625e-04       2.296416819494e+03 
       5.025082589455e-04       2.856054998094e+03 
       6.326204168229e-04       3.548926419636e+03 
       7.964219187582e-04       4.404386032868e+03 
       1.002635792035e-03       5.456696985486e+03 
       1.262243677367e-03       6.744752595992e+03 
       1.589070641313e-03       8.310834795171e+03 
       2.000521411486e-03       1.019787911343e+04 
       2.518507241757e-03       1.244494826567e+04 
       3.170612766436e-03       1.507957701294e+04 
       3.991564982625e-03       1.810665126980e+04 
       5.025082589455e-03       2.149294556905e+04 
       6.326204168229e-03       2.514763365040e+04 
       7.964219187582e-03       2.890149106463e+04 
       1.002635792035e-02       3.248238882427e+04 
       1.262243677367e-02       3.550333121632e+04 
       1.589070641130e-02       3.747614803841e+04 
       2.000521009554e-02       3.790947917487e+04 
       2.518375200685e-02       3.652125166380e+04 
       3.161416273609e-02       3.359431532246e+04 
       3.833487273226e-02       3.050115976019e+04 
       4.325777377689e-02       2.853810072842e+04 
       4.705422993806e-02       2.719230721483e+04 
       5.032403106003e-02       2.610971736645e+04 
       5.331240804631e-02       2.515408123287e+04 
       5.613845734765e-02       2.425790504807e+04 
       5.886934067534e-02       2.338831500080e+04 
       6.154721437960e-02       2.252994729112e+04 
       6.420075158583e-02       2.167278573796e+04 
       6.685073211286e-02       2.081927009731e+04 
       6.951302338007e-02       1.997283223263e+04 
       7.220029036306e-02       1.914062926799e+04 
       7.492303481900e-02       1.833209659810e+04 
       7.769025705387e-02       1.755593983053e+04 
       8.050989376385e-02       1.682032041244e+04 
       8.338911702214e-02       1.613126299615e+04 
       8.633454384508e-02       1.549163885289e+04 
       8.935238624950e-02       1.490047598596e+04 
       9.244856054756e-02       1.435261370704e+04 
       9.562876799951e-02       1.383995351420e+04 
       9.889855488742e-02       1.335133558780e+04 
       1.022633575216e-01       1.287477133890e+04 
       1.057285360527e-01       1.239866388734e+04 
       1.092993998904e-01       1.191426207346e+04 
       1.129812268226e-01       1.141585649383e+04 
       1.167792774566e-01       1.090534089119e+04 
       1.206988062890e-01       1.038899744284e+04 
       1.247450705069e-01       9.877738581184e+03 
       1.289233374810e-01       9.384107105932e+03 
       1.332388918305e-01       8.919551780543e+03 
       1.376970428784e-01       8.491575105441e+03 
       1.423031332867e-01       8.100776825987e+03 
       1.470625496341e-01       7.741681076453e+03 
       1.519807356905e-01       7.403594831492e+03 
       1.570632091269e-01       7.073971571372e+03 
       1.623155824004e-01       6.743320889100e+03 
       1.677435885456e-01       6.406975309667e+03 
       1.733531126164e-01       6.068634914943e+03 
       1.791502295352e-01       5.737024482220e+03 
       1.851412491485e-01       5.422496358961e+03 
       1.913327693488e-01       5.132658395095e+03 
       1.977317382277e-01       4.867343963860e+03 
       2.043455263765e-01       4.619797490849e+03 
       2.111820106734e-01       4.381663382440e+03 
       2.182496711983e-01       4.147983972771e+03 
       2.255577033350e-01       3.917452170564e+03 
       2.331161476765e-01       3.693004651239e+03 
       2.409360410873e-01       3.480397846343e+03 
       2.490295932583e-01       3.282660551213e+03 
       2.574103943792e-01       3.098004218475e+03 
       2.660936612749e-01       2.922594963451e+03 
       2.750965316445e-01       2.752544807920e+03 
       2.844384191405e-01       2.587653009288e+03 
       2.941414462428e-01       2.430746084479e+03 
       3.042309777105e-01       2.282794090508e+03 
       3.147362855502e-01       2.143441375532e+03 
       3.256913880263e-01       2.010185224619e+03 
       3.371361219806e-01       1.882048859348e+03 
       3.491175323421e-01       1.759544579414e+03 
       3.616916995989e-01       1.643521322072e+03 
       3.749261824836e-01       1.532838204735e+03 
       3.889033416066e-01       1.426763738295e+03 
       4.037249519949e-01       1.325137017788e+03 
       4.195187477071e-01       1.227811290396e+03 
       4.364479432883e-01       1.134386538175e+03 
       4.547254875363e-01       1.044288843704e+03 
       4.746361148305e-01       9.571613572950e+02 
       4.965717868054e-01       8.725889208002e+02 
       5.210912566983e-01       7.899447930084e+02 
       5.490255783879e-01       7.085992401298e+02 
       5.816769463922e-01       6.276657766693e+02 
       6.212214431636e-01       5.460388233282e+02 
       6.715920807927e-01       4.621126574676e+02 
       7.405502299336e-01       3.739079244444e+02 
       8.443708769006e-01       2.802132198663e+02 
       1.012606729278e+00       1.865260259491e+02 
       1.264355423451e+00       1.122189032321e+02 
       1.591278351735e+00       6.555187666083e+01 
       2.003296630749e+00       3.787420196986e+01 
       2.522001029374e+00       2.167890461511e+01 
       3.175011184448e+00       1.230526378218e+01 
       3.997102262833e+00       6.932018812757e+00 
       5.032053612220e+00       3.878251579375e+00 
       6.334980165935e+00       2.156401141207e+00 
