# Matter power spectrum P(k) at redshift z=0
# for k=1.59356e-05 to 7.99788 h/Mpc,
# number of wavenumbers equal to 119
#    1:k (h/Mpc)              2:P (Mpc/h)^3        
       1.593557485920e-05       1.085345790682e+01 
       2.006170014179e-05       1.358431747432e+01 
       2.525618411230e-05       1.700228853602e+01 
       3.179565198392e-05       2.128024682332e+01 
       4.002835426712e-05       2.663456191887e+01 
       5.039271237918e-05       3.333602034624e+01 
       6.344066618339e-05       4.172351825291e+01 
       7.986706679942e-05       5.222115129453e+01 
       1.005466799592e-04       6.535959273300e+01 
       1.265807704722e-04       8.180278880323e+01 
       1.593557485920e-04       1.023812232650e+02 
       2.006170014179e-04       1.281333592463e+02 
       2.525618411230e-04       1.603569745967e+02 
       3.179565198392e-04       2.006725800505e+02 
       4.002835426712e-04       2.511010515329e+02 
       5.039271237918e-04       3.141577512556e+02 
       6.344066618339e-04       3.929648856811e+02 
       7.986706679942e-04       4.913831826492e+02 
       1.005466799592e-03       6.141625455797e+02 
       1.265807704722e-03       7.671083572743e+02 
       1.593557485920e-03       9.572510081298e+02 
       2.006170014179e-03       1.192986719268e+03 
       2.525618411230e-03       1.484136556222e+03 
       3.179565198392e-03       1.841784986730e+03 
       4.002835426712e-03       2.278160896745e+03 
       5.039271237918e-03       2.805647098455e+03 
       6.344066618339e-03       3.435425364201e+03 
       7.986706679942e-03       4.175138229709e+03 
       1.005466799592e-02       5.025013415238e+03 
       1.265807704722e-02       5.972923709533e+03 
       1.593557485920e-02       6.987185187097e+03 
       2.006170014179e-02       8.008487438947e+03 
       2.525618410881e-02       8.944387218092e+03 
       3.179564465786e-02       9.673523721087e+03 
       4.002603363410e-02       1.007397862134e+04 
       5.023587447571e-02       1.008663399493e+04 
       6.082704208378e-02       9.837053276328e+03 
       6.855795219222e-02       9.592146681440e+03 
       7.453778535050e-02       9.386742328223e+03 
       7.969678531318e-02       9.200000268767e+03 
       8.441613802436e-02       9.020183925688e+03 
       8.888165778647e-02       8.840879103731e+03 
       9.319841034251e-02       8.658419743068e+03 
       9.743247252188e-02       8.470858208508e+03 
       1.016288549422e-01       8.277531698554e+03 
       1.058202172072e-01       8.078720010473e+03 
       1.100315235879e-01       7.875386412184e+03 
       1.142827173631e-01       7.669227593227e+03 
       1.185903479411e-01       7.462199554369e+03 
       1.229686079235e-01       7.256501415110e+03 
       1.274300197591e-01       7.054324399256e+03 
       1.319859049238e-01       6.857491003351e+03 
       1.366467129434e-01       6.667349575495e+03 
       1.414222570836e-01       6.484324080818e+03 
       1.463218860698e-01       6.308433793587e+03 
       1.513546108359e-01       6.138457316161e+03 
       1.565291989479e-01       5.972586839632e+03 
       1.618542453504e-01       5.808543373348e+03 
       1.673382255185e-01       5.643867978968e+03 
       1.729895354160e-01       5.476421983033e+03 
       1.788165215509e-01       5.304782834578e+03 
       1.848275036813e-01       5.128676717363e+03 
       1.910307922305e-01       4.949140508218e+03 
       1.974347021459e-01       4.768414064471e+03 
       2.040475647227e-01       4.589492457656e+03 
       2.108777387767e-01       4.415483473813e+03 
       2.179336224637e-01       4.248842581450e+03 
       2.252236669882e-01       4.090758290538e+03 
       2.327563934135e-01       3.940664149211e+03 
       2.405404137588e-01       3.796607621703e+03 
       2.485844575579e-01       3.655718203170e+03 
       2.568974050430e-01       3.515219912304e+03 
       2.654883281158e-01       3.373569736002e+03 
       2.743665402783e-01       3.230989258756e+03 
       2.835416567259e-01       3.089293887216e+03 
       2.930236658640e-01       2.951355904516e+03 
       3.028230136139e-01       2.819933473670e+03 
       3.129507020368e-01       2.695936716500e+03 
       3.234184040487e-01       2.578180131265e+03 
       3.342385963514e-01       2.464434399017e+03 
       3.454247131888e-01       2.352894688851e+03 
       3.569913242015e-01       2.242683137542e+03 
       3.689543405378e-01       2.134351082433e+03 
       3.813312545570e-01       2.029648113229e+03 
       3.941414200162e-01       1.929926020366e+03 
       4.074063816907e-01       1.835202417400e+03 
       4.211502661115e-01       1.744466976228e+03 
       4.354002487569e-01       1.656297821864e+03 
       4.501871179620e-01       1.570249576409e+03 
       4.655459625324e-01       1.487059029076e+03 
       4.815170193245e-01       1.407382682887e+03 
       4.981467300529e-01       1.331323132388e+03 
       5.154890750519e-01       1.258090634541e+03 
       5.336072784097e-01       1.187155232244e+03 
       5.525760181523e-01       1.118539788143e+03 
       5.724843340208e-01       1.052612192371e+03 
       5.934395155536e-01       9.891651292968e+02 
       6.155723945100e-01       9.278007030973e+02 
       6.390446929788e-01       8.683338910247e+02 
       6.640594546648e-01       8.107618844187e+02 
       6.908762295466e-01       7.549048674983e+02 
       7.198338204219e-01       7.004733176653e+02 
       7.513854996316e-01       6.472503612484e+02 
       7.861556605257e-01       5.950129543707e+02 
       8.250351262055e-01       5.433721507343e+02 
       8.693501804222e-01       4.919212919808e+02 
       9.211815768279e-01       4.400574809982e+02 
       9.840117494173e-01       3.869754323475e+02 
       1.064146251289e+00       3.315068446863e+02 
       1.174051226470e+00       2.721225395573e+02 
       1.339872426287e+00       2.075999992031e+02 
       1.608677421102e+00       1.414121699518e+02 
       2.009502076011e+00       8.745108861210e+01 
       2.529157580186e+00       5.247183240236e+01 
       3.184014954149e+00       3.106887532984e+01 
       4.008437328634e+00       1.818807446216e+01 
       5.046323614601e+00       1.053943592308e+01 
       6.352945034558e+00       6.051647405716e+00 
       7.997883943736e+00       3.446221626423e+00 
