# Matter power spectrum P(k) at redshift z=0
# for k=1.78905e-05 to 11.3009 h/Mpc,
# number of wavenumbers equal to 120
#    1:k (h/Mpc)              2:P (Mpc/h)^3        
       1.789053517183e-05       9.203956128971e+00 
       2.252284935842e-05       1.147847773821e+01 
       2.835458740332e-05       1.431508142823e+01 
       3.569631062298e-05       1.785266826695e+01 
       4.493899255057e-05       2.226445417916e+01 
       5.657483970234e-05       2.776644836071e+01 
       7.122350336946e-05       3.462801504257e+01 
       8.966507830883e-05       4.318503427669e+01 
       1.128816456335e-04       5.385628784981e+01 
       1.421095722131e-04       6.716384694209e+01 
       1.789053517183e-04       8.375840392300e+01 
       2.252284935842e-04       1.044506760805e+02 
       2.835458740332e-04       1.302502096674e+02 
       3.569631062298e-04       1.624130862411e+02 
       4.493899255057e-04       2.025001283475e+02 
       5.657483970235e-04       2.524471464320e+02 
       7.122350336946e-04       3.146484592107e+02 
       8.966507830883e-04       3.920543209698e+02 
       1.128816456335e-03       4.882818902622e+02 
       1.421095722131e-03       6.077371402205e+02 
       1.789053517183e-03       7.557383069437e+02 
       2.252284935842e-03       9.385919853075e+02 
       2.835458740332e-03       1.163597182346e+03 
       3.569631062298e-03       1.439156372413e+03 
       4.493899255057e-03       1.774302873340e+03 
       5.657483970235e-03       2.178161572105e+03 
       7.122350336946e-03       2.658850923978e+03 
       8.966507830883e-03       3.221690282128e+03 
       1.128816456335e-02       3.866073551832e+03 
       1.421095722132e-02       4.581608697491e+03 
       1.789053517183e-02       5.341923408557e+03 
       2.252284935842e-02       6.097991575704e+03 
       2.835458740292e-02       6.772087465112e+03 
       3.569630913828e-02       7.260304152731e+03 
       4.493825449493e-02       7.456310822756e+03 
       5.650264758451e-02       7.311351186595e+03 
       6.948377705650e-02       6.946524542401e+03 
       7.955536308703e-02       6.649282491023e+03 
       8.706725422214e-02       6.443332073003e+03 
       9.340638315680e-02       6.278940526936e+03 
       9.913617237204e-02       6.133400630388e+03 
       1.045188030537e-01       5.995306993361e+03 
       1.096976196043e-01       5.858015783743e+03 
       1.147605981774e-01       5.717642102164e+03 
       1.197665549997e-01       5.572010136133e+03 
       1.247575280729e-01       5.420214811459e+03 
       1.297652481113e-01       5.262520498733e+03 
       1.348147925830e-01       5.100065044698e+03 
       1.399267787265e-01       4.934715309102e+03 
       1.451187458410e-01       4.768917084621e+03 
       1.504060621830e-01       4.605210790900e+03 
       1.558025399608e-01       4.446442301020e+03 
       1.613208639341e-01       4.294835239292e+03 
       1.669728968815e-01       4.152280389535e+03 
       1.727699012732e-01       4.019699929105e+03 
       1.787227024031e-01       3.897032275958e+03 
       1.848418096679e-01       3.783160455177e+03 
       1.911375073297e-01       3.675907400682e+03 
       1.976199226747e-01       3.572324793603e+03 
       2.042990772505e-01       3.469079579880e+03 
       2.111849253944e-01       3.362974989014e+03 
       2.182873832865e-01       3.251551199890e+03 
       2.256163511117e-01       3.133749035964e+03 
       2.331817304804e-01       3.010208234976e+03 
       2.409934389752e-01       2.883226761747e+03 
       2.490614235089e-01       2.756401609391e+03 
       2.573956740597e-01       2.633850906224e+03 
       2.660062392800e-01       2.519227515388e+03 
       2.749032454289e-01       2.414607074752e+03 
       2.840969200482e-01       2.320013600751e+03 
       2.935976217844e-01       2.233249783902e+03 
       3.034158777441e-01       2.150674386643e+03 
       3.135624297677e-01       2.067936294084e+03 
       3.240482910121e-01       1.981573322027e+03 
       3.348848142635e-01       1.890829583277e+03 
       3.460837734591e-01       1.797929724921e+03 
       3.576574600085e-01       1.706871671586e+03 
       3.696187956742e-01       1.621525689586e+03 
       3.819814640411e-01       1.544178221482e+03 
       3.947600629806e-01       1.474469015755e+03 
       4.079702810515e-01       1.409385785371e+03 
       4.216291015109e-01       1.345105266405e+03 
       4.357550385824e-01       1.279259220050e+03 
       4.503684119406e-01       1.212082510642e+03 
       4.654916670876e-01       1.146274916891e+03 
       4.811497515839e-01       1.085018648211e+03 
       4.973705601175e-01       1.029328252403e+03 
       5.141854654280e-01       9.776135155899e+02 
       5.316299575348e-01       9.271283110211e+02 
       5.497444210926e-01       8.763235640804e+02 
       5.685750908592e-01       8.261810876782e+02 
       5.881752394245e-01       7.786896753030e+02 
       6.086066714131e-01       7.347682543253e+02 
       6.299416272292e-01       6.931776516459e+02 
       6.522652416651e-01       6.523312311057e+02 
       6.756787657237e-01       6.121402191951e+02 
       7.003038559991e-01       5.737835361649e+02 
       7.262883854951e-01       5.375899890241e+02 
       7.538144686110e-01       5.026643044096e+02 
       7.831097852569e-01       4.684107852857e+02 
       8.144639534945e-01       4.353330149843e+02 
       8.482528655355e-01       4.035865096488e+02 
       8.849760282279e-01       3.724767224022e+02 
       9.253160056325e-01       3.420141129362e+02 
       9.702372031596e-01       3.121970370461e+02 
       1.021158544075e+00       2.825554389660e+02 
       1.080273854288e+00       2.529395990679e+02 
       1.151189244004e+00       2.228470306001e+02 
       1.240294408287e+00       1.917358434623e+02 
       1.359939664505e+00       1.588049339572e+02 
       1.535847249971e+00       1.232697321145e+02 
       1.818343131501e+00       8.605925414352e+01 
       2.256478421591e+00       5.370403434260e+01 
       2.838680744114e+00       3.209401804307e+01 
       3.573659946295e+00       1.891146490280e+01 
       4.498971252447e+00       1.101937943256e+01 
       5.663869236616e+00       6.356498991957e+00 
       7.130388911055e+00       3.633750445428e+00 
       8.976627796102e+00       2.060394287710e+00 
       1.130090484473e+01       1.159680745861e+00 
