# Matter power spectrum P(k) at redshift z=0
# for k=1.13063e-05 to 7.14383 h/Mpc,
# number of wavenumbers equal to 120
#    1:k (h/Mpc)              2:P (Mpc/h)^3        
       1.130628882610e-05       4.056202823361e+01 
       1.423377431626e-05       5.042537958007e+01 
       1.791926019249e-05       6.268715780850e+01 
       2.255901201687e-05       7.793051782290e+01 
       2.840011349301e-05       9.688041174694e+01 
       3.575362457419e-05       1.204379701952e+02 
       4.501114654020e-05       1.497233105851e+02 
       5.666567619345e-05       1.861285764029e+02 
       7.133785973643e-05       2.313838155160e+02 
       8.980904444520e-05       2.876385101555e+02 
       1.130628882610e-04       3.575623699507e+02 
       1.423377431626e-04       4.444694773042e+02 
       1.791926019249e-04       5.524704287510e+02 
       2.255901201687e-04       6.866572772461e+02 
       2.840011349301e-04       8.533256378021e+02 
       3.575362457419e-04       1.060236708218e+03 
       4.501114654020e-04       1.316918735032e+03 
       5.666567619345e-04       1.635002392753e+03 
       7.133785973643e-04       2.028577930802e+03 
       8.980904444520e-04       2.514549373896e+03 
       1.130628882610e-03       3.112924072059e+03 
       1.423377431626e-03       3.846896841991e+03 
       1.791926019249e-03       4.742325864096e+03 
       2.255901201687e-03       5.827213870227e+03 
       2.840011349301e-03       7.129377763937e+03 
       3.575362457419e-03       8.672930708801e+03 
       4.501114654020e-03       1.047272682093e+04 
       5.666567619345e-03       1.252585358192e+04 
       7.133785973643e-03       1.479923046859e+04 
       8.980904444520e-03       1.721547916147e+04 
       1.130628882610e-02       1.963332875309e+04 
       1.423377431626e-02       2.182703526558e+04 
       1.791926018955e-02       2.349143715292e+04 
       2.255900610472e-02       2.427743118361e+04 
       2.839830388942e-02       2.392706108635e+04 
       3.563474664437e-02       2.252114232969e+04 
       4.308742947692e-02       2.086920591734e+04 
       4.851091952742e-02       1.978868608027e+04 
       5.271780413306e-02       1.903712348536e+04 
       5.635294329329e-02       1.842912949206e+04 
       5.968118169410e-02       1.788798772444e+04 
       6.283207437350e-02       1.737443755787e+04 
       6.587905987749e-02       1.686769889392e+04 
       6.886840908248e-02       1.635628306467e+04 
       7.183168572336e-02       1.583397739976e+04 
       7.479181866267e-02       1.530042259360e+04 
       7.776635107359e-02       1.475776122023e+04 
       8.076930926843e-02       1.421109715262e+04 
       8.381234090944e-02       1.366749540745e+04 
       8.690544107319e-02       1.313465608882e+04 
       9.005743332255e-02       1.262055593286e+04 
       9.327629860477e-02       1.213229931421e+04 
       9.656940600833e-02       1.167492158260e+04 
       9.994367812446e-02       1.125135996632e+04 
       1.034057115637e-01       1.086137777531e+04 
       1.069618659304e-01       1.050153185245e+04 
       1.106183301157e-01       1.016553676717e+04 
       1.143811719710e-01       9.844605269790e+03 
       1.182563756298e-01       9.528905967489e+03 
       1.222498695638e-01       9.208658350677e+03 
       1.263675476884e-01       8.876621054684e+03 
       1.306152853084e-01       8.528806631314e+03 
       1.349989513546e-01       8.166457064287e+03 
       1.395244181324e-01       7.795498165093e+03 
       1.441975696531e-01       7.425434872196e+03 
       1.490243095242e-01       7.067828042278e+03 
       1.540105693153e-01       6.732925590670e+03 
       1.591623182749e-01       6.427179389544e+03 
       1.644855752550e-01       6.151153386847e+03 
       1.699864236800e-01       5.899570228986e+03 
       1.756710303889e-01       5.662428670125e+03 
       1.815456691737e-01       5.428388125102e+03 
       1.876167498327e-01       5.188885779495e+03 
       1.938908535693e-01       4.939588945022e+03 
       2.003747755846e-01       4.684323379651e+03 
       2.070755757558e-01       4.433100784461e+03 
       2.140006383677e-01       4.196901212760e+03 
       2.211577419785e-01       3.981774081925e+03 
       2.285551406779e-01       3.787152582810e+03 
       2.362016582419e-01       3.607174433724e+03 
       2.441067970372e-01       3.432901004071e+03 
       2.522808639963e-01       3.257283229574e+03 
       2.607351166150e-01       3.079855130365e+03 
       2.694819327597e-01       2.905811290483e+03 
       2.785350091764e-01       2.741928685057e+03 
       2.879095950566e-01       2.591977891696e+03 
       2.976227689551e-01       2.453554128166e+03 
       3.076937699524e-01       2.320506981469e+03 
       3.181443974537e-01       2.189050561283e+03 
       3.289994987939e-01       2.059741602400e+03 
       3.402875704160e-01       1.936596887435e+03 
       3.520415076286e-01       1.821891787036e+03 
       3.642995510902e-01       1.714079992912e+03 
       3.771064971570e-01       1.609860802574e+03 
       3.905152671816e-01       1.508211835744e+03 
       4.045889727720e-01       1.410935897595e+03 
       4.194036782616e-01       1.319000151968e+03 
       4.350521623862e-01       1.231080073357e+03 
       4.516491432812e-01       1.145979345304e+03 
       4.693386993590e-01       1.063867756034e+03 
       4.883050776078e-01       9.851727057350e+02 
       5.087888944140e-01       9.090967124118e+02 
       5.311122360356e-01       8.350005917241e+02 
       5.557190702917e-01       7.630104453798e+02 
       5.832433007419e-01       6.923321782995e+02 
       6.146296011648e-01       6.224867920619e+02 
       6.513617749269e-01       5.527186624385e+02 
       6.959267750200e-01       4.819675922342e+02 
       7.528354359276e-01       4.088135463907e+02 
       8.310211097470e-01       3.314561026415e+02 
       9.492222421319e-01       2.487591769371e+02 
       1.140886144680e+00       1.658695602834e+02 
       1.425723471053e+00       1.003054071689e+02 
       1.794452036545e+00       5.895766031106e+01 
       2.259077612846e+00       3.424913981197e+01 
       2.844010208763e+00       1.969594779529e+01 
       3.580396723214e+00       1.122494160698e+01 
       4.507452419158e+00       6.345107108868e+00 
       5.674546392931e+00       3.560090929649e+00 
       7.143830654466e+00       1.984218307419e+00 
