# Matter power spectrum P(k) at redshift z=0
# for k=1.13669e-05 to 7.18107 h/Mpc,
# number of wavenumbers equal to 120
#    1:k (h/Mpc)              2:P (Mpc/h)^3        
       1.136694724722e-05       3.575879102009e+01 
       1.431013874405e-05       4.476850474833e+01 
       1.801539731118e-05       5.604824485845e+01 
       2.268004147861e-05       7.016994231646e+01 
       2.855248055797e-05       8.784957235638e+01 
       3.594544334419e-05       1.099834538197e+02 
       4.525263206420e-05       1.376935844892e+02 
       5.696968845620e-05       1.723843877110e+02 
       7.172058849950e-05       2.158135865167e+02 
       9.029087141086e-05       2.701806880807e+02 
       1.136694724722e-04       3.382372231144e+02 
       1.431013874405e-04       4.234237358401e+02 
       1.801539731118e-04       5.300393031321e+02 
       2.268004147861e-04       6.634499376055e+02 
       2.855248055797e-04       8.303423071948e+02 
       3.594544334419e-04       1.039028308106e+03 
       4.525263206420e-04       1.299803526575e+03 
       5.696968845620e-04       1.625358498619e+03 
       7.172058849950e-04       2.031235728078e+03 
       9.029087141086e-04       2.536313795861e+03 
       1.136694724722e-03       3.163161130238e+03 
       1.431013874405e-03       3.938192516032e+03 
       1.801539731118e-03       4.892265747252e+03 
       2.268004147861e-03       6.059196728522e+03 
       2.855248055797e-03       7.474174253080e+03 
       3.594544334419e-03       9.170235597022e+03 
       4.525263206420e-03       1.117235671593e+04 
       5.696968845620e-03       1.348778659851e+04 
       7.172058849950e-03       1.609103608629e+04 
       9.029087141086e-03       1.890491073952e+04 
       1.136694724722e-02       2.177152667082e+04 
       1.431013874405e-02       2.442447788171e+04 
       1.801539731051e-02       2.646778127007e+04 
       2.268003955156e-02       2.742285574554e+04 
       2.855168587191e-02       2.688984990855e+04 
       3.587872190063e-02       2.490553465632e+04 
       4.386756392577e-02       2.249979405686e+04 
       4.988431675963e-02       2.099386340408e+04 
       5.443869843080e-02       2.006959740885e+04 
       5.831865099561e-02       1.939527173743e+04 
       6.184360949947e-02       1.883668746598e+04 
       6.516511804707e-02       1.832794533475e+04 
       6.836720772100e-02       1.783193266467e+04 
       7.150198035056e-02       1.732500215272e+04 
       7.460454089031e-02       1.679416956770e+04 
       7.770013748692e-02       1.623415257887e+04 
       8.080792726365e-02       1.564424236023e+04 
       8.394311797906e-02       1.503020157536e+04 
       8.711826068260e-02       1.440109666188e+04 
       9.034406825941e-02       1.376988578026e+04 
       9.362995450373e-02       1.314981964581e+04 
       9.698440083012e-02       1.255551727961e+04 
       1.004152125016e-01       1.199964600953e+04 
       1.039297016310e-01       1.149227600186e+04 
       1.075348202030e-01       1.103922754338e+04 
       1.112372580895e-01       1.064085387841e+04 
       1.150435159809e-01       1.029294433289e+04 
       1.189599599938e-01       9.984895526343e+03 
       1.229928626877e-01       9.702066169778e+03 
       1.271484338990e-01       9.426416014013e+03 
       1.314328439293e-01       9.140445712903e+03 
       1.358522410429e-01       8.828679906414e+03 
       1.404127648418e-01       8.482619249018e+03 
       1.451205568293e-01       8.102040460202e+03 
       1.499817693063e-01       7.696120311985e+03 
       1.550025736354e-01       7.281971045407e+03 
       1.601891688390e-01       6.880946870017e+03 
       1.655477914547e-01       6.513463645599e+03 
       1.710847275467e-01       6.193075359019e+03 
       1.768063277505e-01       5.923485693469e+03 
       1.827190262208e-01       5.697471906905e+03 
       1.888293643420e-01       5.495993855091e+03 
       1.951440200605e-01       5.295118200896e+03 
       2.016698437023e-01       5.074894652999e+03 
       2.084139011603e-01       4.826838560229e+03 
       2.153835253738e-01       4.557053373284e+03 
       2.225863770955e-01       4.283188116797e+03 
       2.300305160530e-01       4.028086850938e+03 
       2.377244837831e-01       3.808511004160e+03 
       2.456773996623e-01       3.626566273317e+03 
       2.538990719991e-01       3.470257410757e+03 
       2.624001265221e-01       3.318913544244e+03 
       2.711921552217e-01       3.154496200829e+03 
       2.802878893392e-01       2.973518562156e+03 
       2.897014013974e-01       2.788576802779e+03 
       2.994483426219e-01       2.617984510866e+03 
       3.095462240385e-01       2.472899394904e+03 
       3.200147521104e-01       2.348515835294e+03 
       3.308762332535e-01       2.229402172267e+03 
       3.421560663027e-01       2.103163799610e+03 
       3.538833485169e-01       1.970833920799e+03 
       3.660916298237e-01       1.844902925746e+03 
       3.788198629197e-01       1.734391313702e+03 
       3.921136154608e-01       1.635695839952e+03 
       4.060266378845e-01       1.537657963161e+03 
       4.206229212297e-01       1.436460961808e+03 
       4.359794416369e-01       1.338949151553e+03 
       4.521898855308e-01       1.251035727170e+03 
       4.693698053661e-01       1.168386037146e+03 
       4.876639126019e-01       1.084727858755e+03 
       5.072566510666e-01       1.003340586577e+03 
       5.283879625250e-01       9.277720512330e+02 
       5.513775648846e-01       8.535969426891e+02 
       5.766637644157e-01       7.801690595643e+02 
       6.048682757492e-01       7.097106836887e+02 
       6.369101919561e-01       6.392926988301e+02 
       6.742189040350e-01       5.695100119571e+02 
       7.191610641329e-01       4.986566666762e+02 
       7.759669755254e-01       4.258017336304e+02 
       8.528897497911e-01       3.489803095750e+02 
       9.671867219619e-01       2.667125433613e+02 
       1.151666320135e+00       1.822980479759e+02 
       1.433509486276e+00       1.118745835455e+02 
       1.803812093743e+00       6.621438932328e+01 
       2.270855077365e+00       3.871586933135e+01 
       2.858837143695e+00       2.241255887035e+01 
       3.599062728374e+00       1.285870495539e+01 
       4.530951527391e+00       7.317829833918e+00 
       5.704130017440e+00       4.134068747318e+00 
       7.181074231133e+00       2.319897301379e+00 
