# Matter power spectrum P(k) at redshift z=0
# for k=1.08679e-05 to 6.86687 h/Mpc,
# number of wavenumbers equal to 120
#    1:k (h/Mpc)              2:P (Mpc/h)^3        
       1.086788927721e-05       2.516965103567e+01 
       1.368186198364e-05       3.159416469303e+01 
       1.722444373187e-05       3.965848370024e+01 
       2.168428991807e-05       4.978116501490e+01 
       2.729890361456e-05       6.248752745145e+01 
       3.436728347449e-05       7.843693076043e+01 
       4.326584650038e-05       9.845693485271e+01 
       5.446847362211e-05       1.235860706488e+02 
       6.857174558451e-05       1.551274927989e+02 
       8.632671304743e-05       1.947160482659e+02 
       1.086788927721e-04       2.444020424864e+02 
       1.368186198364e-04       3.067554455414e+02 
       1.722444373187e-04       3.849950510536e+02 
       2.168428991807e-04       4.831472197740e+02 
       2.729890361456e-04       6.062389456238e+02 
       3.436728347449e-04       7.605288050257e+02 
       4.326584650038e-04       9.537769784440e+02 
       5.446847362211e-04       1.195551569668e+03 
       6.857174558451e-04       1.497562841244e+03 
       8.632671304743e-04       1.874006559947e+03 
       1.086788927721e-03       2.341866901204e+03 
       1.368186198364e-03       2.921062301676e+03 
       1.722444373187e-03       3.634165549745e+03 
       2.168428991807e-03       4.505857302167e+03 
       2.729890361456e-03       5.561276599774e+03 
       3.436728347449e-03       6.823010558128e+03 
       4.326584650038e-03       8.306425094265e+03 
       5.446847362211e-03       1.001237691215e+04 
       6.857174558451e-03       1.191667166727e+04 
       8.632671304743e-03       1.395758211461e+04 
       1.086788927721e-02       1.601819807952e+04 
       1.368186198364e-02       1.791267116090e+04 
       1.722444372851e-02       1.938108726787e+04 
       2.168428344526e-02       2.012894921883e+04 
       2.729699003810e-02       1.993557819536e+04 
       3.424514262645e-02       1.886368049348e+04 
       4.134757283159e-02       1.757610969975e+04 
       4.650159122575e-02       1.672543148909e+04 
       5.051084422717e-02       1.612553390309e+04 
       5.398068719838e-02       1.563438256672e+04 
       5.716035351079e-02       1.519198793078e+04 
       6.017219356786e-02       1.476871084636e+04 
       6.308573747327e-02       1.434828514380e+04 
       6.594487469043e-02       1.392169702616e+04 
       6.877958736975e-02       1.348541528309e+04 
       7.161168076492e-02       1.303915182228e+04 
       7.445785461799e-02       1.258537612137e+04 
       7.733147203635e-02       1.212884298181e+04 
       8.024363795804e-02       1.167533735136e+04 
       8.320388769308e-02       1.123178205602e+04 
       8.622064345526e-02       1.080468151285e+04 
       8.930152666451e-02       1.039973623385e+04 
       9.245357716535e-02       1.002063443349e+04 
       9.568341038074e-02       9.669544956684e+03 
       9.899733188178e-02       9.345587186542e+03 
       1.024014219908e-01       9.045441135967e+03 
       1.059015988265e-01       8.763262482972e+03 
       1.095036655484e-01       8.491561691626e+03 
       1.132133458537e-01       8.222266779509e+03 
       1.170363106626e-01       7.947422355657e+03 
       1.209781981922e-01       7.661562889639e+03 
       1.250446291263e-01       7.362400259761e+03 
       1.292412182627e-01       7.051750723250e+03 
       1.335735838010e-01       6.735349041933e+03 
       1.380473552960e-01       6.421770496604e+03 
       1.426681812071e-01       6.120386833591e+03 
       1.474417369197e-01       5.839311506314e+03 
       1.523737340769e-01       5.582707981607e+03 
       1.574699320395e-01       5.350230815947e+03 
       1.627361522745e-01       5.136359053371e+03 
       1.681782964660e-01       4.932347744555e+03 
       1.738023691348e-01       4.728972222559e+03 
       1.796145055501e-01       4.520191070937e+03 
       1.856210057290e-01       4.303827694751e+03 
       1.918283753341e-01       4.084060393611e+03 
       1.982433743263e-01       3.869746397698e+03 
       2.048730742979e-01       3.669412830931e+03 
       2.117249255243e-01       3.486981970617e+03 
       2.188068349413e-01       3.320590328872e+03 
       2.261272564934e-01       3.164618080762e+03 
       2.336952956343e-01       3.012216928225e+03 
       2.415208302092e-01       2.858662092194e+03 
       2.496146505594e-01       2.704603721135e+03 
       2.579886224885e-01       2.554924982100e+03 
       2.666558777987e-01       2.414590376007e+03 
       2.756310385070e-01       2.285557389841e+03 
       2.849304827234e-01       2.165194853216e+03 
       2.945726626701e-01       2.048590324526e+03 
       3.045784886909e-01       1.933486469119e+03 
       3.149717976998e-01       1.821172180660e+03 
       3.257799308736e-01       1.714613989672e+03 
       3.370344542936e-01       1.615033059212e+03 
       3.487720689080e-01       1.520592406226e+03 
       3.610357744943e-01       1.429079149151e+03 
       3.738763792608e-01       1.340159548797e+03 
       3.873544871742e-01       1.255324271214e+03 
       4.015431571187e-01       1.174812529992e+03 
       4.165315252909e-01       1.097461336138e+03 
       4.324298389017e-01       1.022643652100e+03 
       4.493766088311e-01       9.505355825946e+02 
       4.675490330154e-01       8.812294429517e+02 
       4.871786301891e-01       8.140741667052e+02 
       5.085754794648e-01       7.486939194636e+02 
       5.321672792450e-01       6.850046903048e+02 
       5.585651891325e-01       6.223871823785e+02 
       5.886808744348e-01       5.604063754353e+02 
       6.239480099560e-01       4.983594295017e+02 
       6.667730832423e-01       4.352955608665e+02 
       7.215286566189e-01       3.699117803798e+02 
       7.968893503896e-01       3.005343866262e+02 
       9.110516549593e-01       2.260938046479e+02 
       1.096205233210e+00       1.513141425839e+02 
       1.370421563616e+00       9.211018784916e+01 
       1.724881697382e+00       5.456697155855e+01 
       2.171494283614e+00       3.195621636202e+01 
       2.733749330896e+00       1.852980927508e+01 
       3.441586502140e+00       1.064911178657e+01 
       4.332700704432e+00       6.070991345877e+00 
       5.454547018507e+00       3.435892793758e+00 
       6.866867851425e+00       1.931740105094e+00 
