# Matter power spectrum P(k) at redshift z=0
# for k=1.38956e-05 to 6.97404 h/Mpc,
# number of wavenumbers equal to 119
#    1:k (h/Mpc)              2:P (Mpc/h)^3        
       1.389559074550e-05       2.007012230021e+01 
       1.749351230141e-05       2.518255304545e+01 
       2.202302717777e-05       3.159725771361e+01 
       2.772534855873e-05       3.964593572288e+01 
       3.490414585144e-05       4.974478290134e+01 
       4.394171618935e-05       6.241597336118e+01 
       5.531934314862e-05       7.831463120924e+01 
       6.964292685355e-05       9.826263616131e+01 
       8.767525036766e-05       1.232909758775e+02 
       1.103766006733e-04       1.546927685342e+02 
       1.389559074550e-04       1.940895626145e+02 
       1.749351230141e-04       2.435140313245e+02 
       2.202302717777e-04       3.055128698272e+02 
       2.772534855873e-04       3.832740975988e+02 
       3.490414585144e-04       4.807835783951e+02 
       4.394171618935e-04       6.030152896581e+02 
       5.531934314862e-04       7.561595015663e+02 
       6.964292685355e-04       9.478913646078e+02 
       8.767525036766e-04       1.187680019695e+03 
       1.103766006733e-03       1.487132667964e+03 
       1.389559074550e-03       1.860350556618e+03 
       1.749351230141e-03       2.324186918415e+03 
       2.202302717777e-03       2.898288336677e+03 
       2.772534855873e-03       3.605420340567e+03 
       3.490414585144e-03       4.470319584986e+03 
       4.394171618935e-03       5.518298746511e+03 
       5.531934314862e-03       6.772353859734e+03 
       6.964292685355e-03       8.248267420393e+03 
       8.767525036766e-03       9.946311395135e+03 
       1.103766006733e-02       1.184052423984e+04 
       1.389559074550e-02       1.386216631036e+04 
       1.749351230141e-02       1.588068370851e+04 
       2.202302717469e-02       1.769051504425e+04 
       2.772534210987e-02       1.902053678121e+04 
       3.490210821562e-02       1.960580429567e+04 
       4.380429042821e-02       1.935436172074e+04 
       5.303412298320e-02       1.864382366967e+04 
       5.976978295074e-02       1.807413284140e+04 
       6.498087031796e-02       1.764266945834e+04 
       6.947716923930e-02       1.727411043674e+04 
       7.359055823719e-02       1.693141247692e+04 
       7.748285761574e-02       1.659454840845e+04 
       8.124558292087e-02       1.625156453313e+04 
       8.493629687419e-02       1.589529418152e+04 
       8.859421447361e-02       1.552260907163e+04 
       9.224779242758e-02       1.513242808013e+04 
       9.591878394106e-02       1.472644703084e+04 
       9.962456810855e-02       1.430836159096e+04 
       1.033795672699e-01       1.388322477843e+04 
       1.071961504338e-01       1.345765221174e+04 
       1.110852314770e-01       1.303784283234e+04 
       1.150566779021e-01       1.263070155620e+04 
       1.191195974976e-01       1.224106935338e+04 
       1.232825436880e-01       1.187311983494e+04 
       1.275536651518e-01       1.152815449898e+04 
       1.319408162583e-01       1.120518447479e+04 
       1.364516393403e-01       1.090048297026e+04 
       1.410936263371e-01       1.060816018121e+04 
       1.458741651068e-01       1.032055709921e+04 
       1.508005742426e-01       1.002965655545e+04 
       1.558801292615e-01       9.728337482979e+03 
       1.611200823878e-01       9.411988451143e+03 
       1.665276777290e-01       9.079712774500e+03 
       1.721101633521e-01       8.734892651087e+03 
       1.778748015890e-01       8.384693629102e+03 
       1.838288787757e-01       8.038744016986e+03 
       1.899797155562e-01       7.706975552263e+03 
       1.963346788364e-01       7.397115825325e+03 
       2.029011964413e-01       7.112258547842e+03 
       2.096867755115e-01       6.850231667605e+03 
       2.166990256626e-01       6.603795825974e+03 
       2.239456879194e-01       6.363280422824e+03 
       2.314346704416e-01       6.118993491734e+03 
       2.391740920600e-01       5.864558505713e+03 
       2.471723346726e-01       5.601125722578e+03 
       2.554381056013e-01       5.336599910262e+03 
       2.639805110967e-01       5.081522969583e+03 
       2.728091423282e-01       4.843990345026e+03 
       2.819341754013e-01       4.626788950937e+03 
       2.913664872570e-01       4.426319166086e+03 
       3.011177897290e-01       4.233942038655e+03 
       3.112007846106e-01       4.041192786205e+03 
       3.216293433594e-01       3.845037220219e+03 
       3.324187160914e-01       3.648874888518e+03 
       3.435857758741e-01       3.460143142053e+03 
       3.551493061243e-01       3.285026284174e+03 
       3.671303412970e-01       3.123178999996e+03 
       3.795525742424e-01       2.968973554802e+03 
       3.924428478998e-01       2.816587015991e+03 
       4.058317548637e-01       2.664710470193e+03 
       4.197543764456e-01       2.517391579862e+03 
       4.342512041904e-01       2.378590114738e+03 
       4.493693029132e-01       2.248373230795e+03 
       4.651637976015e-01       2.122728048577e+03 
       4.816998007686e-01       1.999192474452e+03 
       4.990549481909e-01       1.879090113971e+03 
       5.173227896061e-01       1.764790894214e+03 
       5.366174042327e-01       1.655545700811e+03 
       5.570798092472e-01       1.549155982809e+03 
       5.788870574987e-01       1.445345878861e+03 
       6.022654814323e-01       1.345233159233e+03 
       6.275105333198e-01       1.248125678103e+03 
       6.550175039728e-01       1.152709208633e+03 
       6.853309414899e-01       1.059303408005e+03 
       7.192277978492e-01       9.671017479992e+02 
       7.578649026033e-01       8.751683938311e+02 
       8.030573152415e-01       7.826379172788e+02 
       8.578431146120e-01       6.879623925347e+02 
       9.277239650290e-01       5.891092498053e+02 
       1.023578089312e+00       4.833621866948e+02 
       1.168221075678e+00       3.685626727032e+02 
       1.402700432607e+00       2.509379452520e+02 
       1.752255193825e+00       1.551635994936e+02 
       2.205390390315e+00       9.312223420098e+01 
       2.776416996057e+00       5.516666032648e+01 
       3.495301902593e+00       3.231937173860e+01 
       4.400324387065e+00       1.874577081771e+01 
       5.539680191014e+00       1.077569176997e+01 
       6.974044165680e+00       6.144145817331e+00 
