# Matter power spectrum P(k) at redshift z=0
# for k=9.03554e-06 to 7.18636 h/Mpc,
# number of wavenumbers equal to 121
#    1:k (h/Mpc)              2:P (Mpc/h)^3        
       9.035536255529e-06       1.071678267439e+02 
       1.137506620127e-05       1.329333046199e+02 
       1.432035990162e-05       1.648932304111e+02 
       1.802826498619e-05       2.045366769286e+02 
       2.269624092168e-05       2.537105730553e+02 
       2.857287444850e-05       3.147056061735e+02 
       3.597111773122e-05       3.903623903407e+02 
       4.528495420247e-05       4.842032158788e+02 
       5.701037961743e-05       6.005945378671e+02 
       7.177181563641e-05       7.449473293089e+02 
       9.035536255529e-05       9.239633627547e+02 
       1.137506620127e-04       1.145935700767e+03 
       1.432035990162e-04       1.421112631813e+03 
       1.802826498619e-04       1.762131893303e+03 
       2.269624092168e-04       2.184527787838e+03 
       2.857287444850e-04       2.707303755569e+03 
       3.597111773122e-04       3.353547040530e+03 
       4.528495420247e-04       4.151040423949e+03 
       5.701037961743e-04       5.132802914137e+03 
       7.177181563641e-04       6.337453965921e+03 
       9.035536255529e-04       7.809173163357e+03 
       1.137506620127e-03       9.596749612525e+03 
       1.432035990162e-03       1.175091655797e+04 
       1.802826498619e-03       1.431998680178e+04 
       2.269624092168e-03       1.734216722361e+04 
       2.857287444850e-03       2.083390606347e+04 
       3.597111773122e-03       2.477434036199e+04 
       4.528495420247e-03       2.908368820138e+04 
       5.701037961743e-03       3.359872232806e+04 
       7.177181563641e-03       3.805036966994e+04 
       9.035536255529e-03       4.202314487587e+04 
       1.137506620127e-02       4.495989264279e+04 
       1.432035990100e-02       4.620158857036e+04 
       1.802826325213e-02       4.512784746601e+04 
       2.269554876597e-02       4.152380479893e+04 
       2.851629355168e-02       3.610223875875e+04 
       3.482735626631e-02       3.107801495335e+04 
       3.955874021697e-02       2.827848057536e+04 
       4.314965482312e-02       2.661062765106e+04 
       4.621373811780e-02       2.539083899462e+04 
       4.899990264759e-02       2.437065770842e+04 
       5.162663424016e-02       2.343189635550e+04 
       5.415979360995e-02       2.252062271883e+04 
       5.664028873276e-02       2.160319762499e+04 
       5.909571982827e-02       2.066748696347e+04 
       6.154595918399e-02       1.971105960794e+04 
       6.400609872017e-02       1.874220767027e+04 
       6.648812839234e-02       1.777359653161e+04 
       6.900195023920e-02       1.682373867739e+04 
       7.155602102241e-02       1.591001463671e+04 
       7.415777573375e-02       1.505033125260e+04 
       7.681391584897e-02       1.425907470639e+04 
       7.953061082713e-02       1.354642185079e+04 
       8.231364207676e-02       1.291589432600e+04 
       8.516850763399e-02       1.236457682434e+04 
       8.810049930949e-02       1.188278679174e+04 
       9.111476010087e-02       1.145447091647e+04 
       9.421632718415e-02       1.105915597797e+04 
       9.741016420600e-02       1.067389587831e+04 
       1.007011855597e-01       1.027750667662e+04 
       1.040942746418e-01       9.853510669709e+03 
       1.075942976302e-01       9.394491178269e+03 
       1.112061140195e-01       8.902214325507e+03 
       1.149345849504e-01       8.391383344077e+03 
       1.187845802340e-01       7.882549814241e+03 
       1.227609848910e-01       7.399179967756e+03 
       1.268687059690e-01       6.961406973861e+03 
       1.311126803693e-01       6.581298031613e+03 
       1.354978843913e-01       6.258976253479e+03 
       1.400293456927e-01       5.982122327734e+03 
       1.447121583505e-01       5.730568407785e+03 
       1.495515017051e-01       5.480979116540e+03 
       1.545526636666e-01       5.216036134593e+03 
       1.597210691665e-01       4.928171733234e+03 
       1.650623144569e-01       4.624736550257e+03 
       1.705822079863e-01       4.325343941202e+03 
       1.762868186424e-01       4.050514843987e+03 
       1.821825322392e-01       3.810881862006e+03 
       1.882761172646e-01       3.605454712949e+03 
       1.945748010963e-01       3.423090067389e+03 
       2.010863581717e-01       3.247721033606e+03 
       2.078192119633e-01       3.065910295810e+03 
       2.147825531158e-01       2.876579505654e+03 
       2.219864767580e-01       2.689406749503e+03 
       2.294421428833e-01       2.516274709827e+03 
       2.371619648507e-01       2.363962414343e+03 
       2.451598325939e-01       2.228273109476e+03 
       2.534513791840e-01       2.098815199240e+03 
       2.620543021533e-01       1.968985838439e+03 
       2.709887547574e-01       1.839678272328e+03 
       2.802778275441e-01       1.717512683279e+03 
       2.899481478523e-01       1.606572209532e+03 
       3.000306351580e-01       1.504443177247e+03 
       3.105614650239e-01       1.405959795806e+03 
       3.215833161810e-01       1.309362356376e+03 
       3.331470078331e-01       1.217512538318e+03 
       3.453136840009e-01       1.132115356798e+03 
       3.581577794117e-01       1.051311439378e+03 
       3.717711259422e-01       9.734095304852e+02 
       3.862687638273e-01       8.985798884874e+02 
       4.017973708881e-01       8.277061098281e+02 
       4.185478381035e-01       7.598273172758e+02 
       4.367746479194e-01       6.941039163171e+02 
       4.568268766360e-01       6.308921307583e+02 
       4.792000170695e-01       5.694200579576e+02 
       5.046271910629e-01       5.092464626462e+02 
       5.342497624197e-01       4.498258308685e+02 
       5.699599475624e-01       3.903237209540e+02 
       6.151452928980e-01       3.297077061069e+02 
       6.764255599313e-01       2.666351751665e+02 
       7.676504158514e-01       2.002236169191e+02 
       9.149978421186e-01       1.336916594505e+02 
       1.139476384249e+00       7.994178902203e+01 
       1.433873843799e+00       4.616836192499e+01 
       1.805133189781e+00       2.638231659139e+01 
       2.272528030656e+00       1.494633077479e+01 
       2.860943286804e+00       8.402065535662e+00 
       3.601714205460e+00       4.689763073293e+00 
       4.534289539273e+00       2.600832124346e+00 
       5.708332325423e+00       1.433976953920e+00 
       7.186364623441e+00       7.863924742059e-01 
