# Matter power spectrum P(k) at redshift z=0
# for k=1.3775e-05 to 6.91364 h/Mpc,
# number of wavenumbers equal to 119
#    1:k (h/Mpc)              2:P (Mpc/h)^3        
       1.377504465614e-05       2.247896385662e+01 
       1.734175376622e-05       2.797215697243e+01 
       2.183197450137e-05       3.480771323899e+01 
       2.748482748941e-05       4.331364930053e+01 
       3.460134776520e-05       5.389811416223e+01 
       4.356051598394e-05       6.706898051171e+01 
       5.483944052304e-05       8.345813507823e+01 
       6.903876524303e-05       1.038517762479e+02 
       8.691465596335e-05       1.292279385252e+02 
       1.094190690496e-04       1.608031386823e+02 
       1.377504465614e-04       2.000901490267e+02 
       1.734175376622e-04       2.489693974825e+02 
       2.183197450137e-04       3.097769059137e+02 
       2.748482748941e-04       3.854119314631e+02 
       3.460134776520e-04       4.794676213815e+02 
       4.356051598394e-04       5.963875896030e+02 
       5.483944052304e-04       7.416503416973e+02 
       6.903876524303e-04       9.219816615109e+02 
       8.691465596335e-04       1.145592334142e+03 
       1.094190690496e-03       1.422432783691e+03 
       1.377504465614e-03       1.764439170974e+03 
       1.734175376622e-03       2.185709677716e+03 
       2.183197450137e-03       2.702450979835e+03 
       2.748482748941e-03       3.332765410900e+03 
       3.460134776520e-03       4.096029892817e+03 
       4.356051598394e-03       5.011139561744e+03 
       5.483944052304e-03       6.093925446520e+03 
       6.903876524303e-03       7.352899202205e+03 
       8.691465596335e-03       8.782404365525e+03 
       1.094190690496e-02       1.035428003231e+04 
       1.377504465614e-02       1.200574963180e+04 
       1.734175376621e-02       1.362646813104e+04 
       2.183197449515e-02       1.505182203376e+04 
       2.748481657450e-02       1.607566843713e+04 
       3.459835831745e-02       1.650687934456e+04 
       4.338144857561e-02       1.628914511744e+04 
       5.220785654948e-02       1.572567796204e+04 
       5.857898482909e-02       1.525859963763e+04 
       6.356597132482e-02       1.488333561296e+04 
       6.789679281633e-02       1.455030462655e+04 
       7.187295730675e-02       1.423487884149e+04 
       7.564362867995e-02       1.392436535612e+04 
       7.929404488767e-02       1.361109484393e+04 
       8.287822935833e-02       1.329115709279e+04 
       8.643320325470e-02       1.296292679375e+04 
       8.998595994431e-02       1.262657236701e+04 
       9.355721688680e-02       1.228373483149e+04 
       9.716358264105e-02       1.193711218740e+04 
       1.008188811135e-01       1.159014205616e+04 
       1.045349986087e-01       1.124666552976e+04 
       1.083224463310e-01       1.091049088958e+04 
       1.121907456708e-01       1.058465417018e+04 
       1.161486989393e-01       1.027158570955e+04 
       1.202045836192e-01       9.972407569974e+03 
       1.243662940726e-01       9.686715377976e+03 
       1.286414462365e-01       9.412704240903e+03 
       1.330374556652e-01       9.147137465104e+03 
       1.375615960249e-01       8.885946850067e+03 
       1.422210430446e-01       8.624694656497e+03 
       1.470229075583e-01       8.359355849247e+03 
       1.519742603621e-01       8.087190064737e+03 
       1.570821510064e-01       7.807535988027e+03 
       1.623536222414e-01       7.521853416823e+03 
       1.677957215640e-01       7.233924274019e+03 
       1.734155111466e-01       6.948894308741e+03 
       1.792200773097e-01       6.672267797140e+03 
       1.852165406359e-01       6.408571028872e+03 
       1.914120677737e-01       6.160011455850e+03 
       1.978138859568e-01       5.925861241167e+03 
       2.044293012430e-01       5.702799012741e+03 
       2.112657214667e-01       5.485727305604e+03 
       2.183306848902e-01       5.269538236931e+03 
       2.256318955402e-01       5.051256633515e+03 
       2.331772662234e-01       4.830697049558e+03 
       2.409749702442e-01       4.610786721105e+03 
       2.490335028990e-01       4.396805643488e+03 
       2.573617539143e-01       4.193614549005e+03 
       2.659690921387e-01       4.003142187091e+03 
       2.748654640142e-01       3.823524877227e+03 
       2.840615076565e-01       3.651073072239e+03 
       2.935686847994e-01       3.482199859963e+03 
       3.033994334313e-01       3.314840161277e+03 
       3.135673447260e-01       3.149849394752e+03 
       3.240873688860e-01       2.990384187000e+03 
       3.349760558726e-01       2.838969843600e+03 
       3.462518387812e-01       2.696050959993e+03 
       3.579353699962e-01       2.559894422105e+03 
       3.700499234334e-01       2.427631622448e+03 
       3.826218804684e-01       2.298395625297e+03 
       3.956813229994e-01       2.173304325507e+03 
       4.092627651836e-01       2.053784561934e+03 
       4.234060667335e-01       1.940226520235e+03 
       4.381575868002e-01       1.831183430013e+03 
       4.535716608413e-01       1.725597723973e+03 
       4.697125172924e-01       1.623418299752e+03 
       4.866568025738e-01       1.525455434618e+03 
       5.044969623123e-01       1.431456562114e+03 
       5.233458513037e-01       1.340680850282e+03 
       5.433431456748e-01       1.252784214261e+03 
       5.646644640923e-01       1.167790437480e+03 
       5.875346761637e-01       1.085509105066e+03 
       6.122478913848e-01       1.005444722292e+03 
       6.391985017005e-01       9.272500802008e+02 
       6.689312973806e-01       8.506281106666e+02 
       7.022261359605e-01       7.749705339764e+02 
       7.402488504456e-01       6.996858913895e+02 
       7.848377212013e-01       6.238904661828e+02 
       8.390885555797e-01       5.463810863037e+02 
       9.086484020271e-01       4.654655188210e+02 
       1.004763203568e+00       3.789593249216e+02 
       1.151018686600e+00       2.854373789597e+02 
       1.388266319460e+00       1.912373711996e+02 
       1.736942379341e+00       1.168869889890e+02 
       2.186287384321e+00       6.954553151040e+01 
       2.752369722469e+00       4.085079386532e+01 
       3.465028182447e+00       2.372971406164e+01 
       4.362212031465e+00       1.364734922963e+01 
       5.491699578046e+00       7.778583789568e+00 
       6.913640152741e+00       4.397771913080e+00 
