# Matter power spectrum P(k) at redshift z=0
# for k=1.18379e-05 to 7.47856 h/Mpc,
# number of wavenumbers equal to 120
#    1:k (h/Mpc)              2:P (Mpc/h)^3        
       1.183794252919e-05       3.367707104192e+01 
       1.490308667336e-05       4.220306067647e+01 
       1.876187452726e-05       5.288755862583e+01 
       2.361980061526e-05       6.627696885161e+01 
       2.973556721607e-05       8.305603967255e+01 
       3.743486120242e-05       1.040828071058e+02 
       4.712769805471e-05       1.304323945613e+02 
       5.933025668044e-05       1.634518671036e+02 
       7.469236782328e-05       2.048288084825e+02 
       9.403211991980e-05       2.566770505552e+02 
       1.183794252919e-04       3.216435865578e+02 
       1.490308667336e-04       4.030416194724e+02 
       1.876187452726e-04       5.050154487284e+02 
       2.361980061526e-04       6.327435464031e+02 
       2.973556721607e-04       7.926863854154e+02 
       3.743486120242e-04       9.928848397546e+02 
       4.712769805471e-04       1.243312840090e+03 
       5.933025668044e-04       1.556284280627e+03 
       7.469236782328e-04       1.946908620356e+03 
       9.403211991980e-04       2.433578779604e+03 
       1.183794252919e-03       3.038379295012e+03 
       1.490308667336e-03       3.787147685241e+03 
       1.876187452726e-03       4.710296953443e+03 
       2.361980061526e-03       5.841345690511e+03 
       2.973556721607e-03       7.215522146227e+03 
       3.743486120242e-03       8.866482048357e+03 
       4.712769805471e-03       1.082071728443e+04 
       5.933025668044e-03       1.308838629785e+04 
       7.469236782328e-03       1.564875528781e+04 
       9.403211991980e-03       1.843188831041e+04 
       1.183794252919e-02       2.129028177048e+04 
       1.490308667336e-02       2.396995108008e+04 
       1.876187452661e-02       2.609216852355e+04 
       2.361979870432e-02       2.718760144643e+04 
       2.973476896778e-02       2.685238942106e+04 
       3.736713065480e-02       2.508570956442e+04 
       4.570692391096e-02       2.283532635145e+04 
       5.199970437427e-02       2.139263740917e+04 
       5.675807112088e-02       2.049554106213e+04 
       6.080921442346e-02       1.983431715465e+04 
       6.448842870151e-02       1.928193903635e+04 
       6.795457051023e-02       1.877583227583e+04 
       7.129564078470e-02       1.828090013390e+04 
       7.456616464380e-02       1.777460515670e+04 
       7.780286012420e-02       1.724490280125e+04 
       8.103212415398e-02       1.668610785487e+04 
       8.427397829814e-02       1.609840579245e+04 
       8.754431166655e-02       1.548690940545e+04 
       9.085623415259e-02       1.486072558715e+04 
       9.422093306869e-02       1.423164903205e+04 
       9.764823715782e-02       1.361357401329e+04 
       1.011470001863e-01       1.302011714505e+04 
       1.047253689195e-01       1.246382763797e+04 
       1.083909744859e-01       1.195405855218e+04 
       1.121510714623e-01       1.149643859960e+04 
       1.160126403470e-01       1.109202469451e+04 
       1.199824638045e-01       1.073580931197e+04 
       1.240671837524e-01       1.041793917958e+04 
       1.282733442386e-01       1.012389644466e+04 
       1.326074236745e-01       9.836582041640e+03 
       1.370758590757e-01       9.538343820983e+03 
       1.416850643523e-01       9.215139802507e+03 
       1.464414442875e-01       8.858338938000e+03 
       1.513514055749e-01       8.468298944254e+03 
       1.564213661075e-01       8.054092640141e+03 
       1.616577635999e-01       7.632500416721e+03 
       1.670670645515e-01       7.224375508718e+03 
       1.726557745146e-01       6.849423261695e+03 
       1.784304506048e-01       6.520768338589e+03 
       1.843977171686e-01       6.241765982545e+03 
       1.905642855164e-01       6.004861878535e+03 
       1.969369786177e-01       5.791883039487e+03 
       2.035227616535e-01       5.579072080610e+03 
       2.103287793280e-01       5.347211395576e+03 
       2.173624008610e-01       5.088490141975e+03 
       2.246312736238e-01       4.809271290906e+03 
       2.321433864549e-01       4.527166467777e+03 
       2.399071438114e-01       4.264170796435e+03 
       2.479314520851e-01       4.036460159085e+03 
       2.562258196734e-01       3.845769376582e+03 
       2.648004727454e-01       3.679868765746e+03 
       2.736664891358e-01       3.518653685457e+03 
       2.828359534456e-01       3.344884536851e+03 
       2.923221373006e-01       3.155444836151e+03 
       3.021397098624e-01       2.963058580470e+03 
       3.123049852040e-01       2.785494775828e+03 
       3.228362151751e-01       2.633199531863e+03 
       3.337539390675e-01       2.501121205810e+03 
       3.450814050081e-01       2.374134120996e+03 
       3.568450829320e-01       2.240480285411e+03 
       3.690752957721e-01       2.101524932343e+03 
       3.818070049809e-01       1.969489255505e+03 
       3.950807999406e-01       1.852832495833e+03 
       4.089441601838e-01       1.747705214163e+03 
       4.234530877551e-01       1.643315612625e+03 
       4.386742495014e-01       1.536324145309e+03 
       4.546878338769e-01       1.433418834291e+03 
       4.715914280363e-01       1.340060365505e+03 
       4.895053830179e-01       1.251874727812e+03 
       5.085804016863e-01       1.162990003453e+03 
       5.290085376247e-01       1.076642246620e+03 
       5.510395915789e-01       9.960931378828e+02 
       5.750063547593e-01       9.169694768281e+02 
       6.013649519612e-01       8.387941996901e+02 
       6.307621949046e-01       7.635312142873e+02 
       6.641539580858e-01       6.883477307504e+02 
       7.030262225572e-01       6.137367321560e+02 
       7.498380844560e-01       5.379461472351e+02 
       8.089823947156e-01       4.599056533556e+02 
       8.890238582750e-01       3.775307719193e+02 
       1.007867213248e+00       2.891680266263e+02 
       1.199627262571e+00       1.982293678738e+02 
       1.492915618996e+00       1.220048061093e+02 
       1.878537400538e+00       7.238839054776e+01 
       2.364927836679e+00       4.242195346013e+01 
       2.977267728989e+00       2.461063532091e+01 
       3.748158001733e+00       1.414831685192e+01 
       4.718651355802e+00       8.067111141888e+00 
       5.940430101216e+00       4.565571377924e+00 
       7.478558411407e+00       2.566565376659e+00 
