# Matter power spectrum P(k) at redshift z=0
# for k=1.08885e-05 to 6.87866 h/Mpc,
# number of wavenumbers equal to 120
#    1:k (h/Mpc)              2:P (Mpc/h)^3        
       1.088849864903e-05       3.667856779991e+01 
       1.370780764555e-05       4.592635842203e+01 
       1.725710738496e-05       5.750576731405e+01 
       2.172541102099e-05       7.200461624460e+01 
       2.735067201600e-05       9.015892039178e+01 
       3.443245603059e-05       1.128901601140e+02 
       4.334789388739e-05       1.413519972497e+02 
       5.457176516260e-05       1.769886409287e+02 
       6.870178192965e-05       2.216077837343e+02 
       8.649041910678e-05       2.774716246843e+02 
       1.088849864903e-04       3.474102098089e+02 
       1.370780764555e-04       4.349621723014e+02 
       1.725710738496e-04       5.445486099871e+02 
       2.172541102099e-04       6.816863657373e+02 
       2.735067201600e-04       8.532467047801e+02 
       3.443245603059e-04       1.067763990725e+03 
       4.334789388739e-04       1.335795678814e+03 
       5.457176516260e-04       1.670329745833e+03 
       6.870178192965e-04       2.087228407488e+03 
       8.649041910678e-04       2.605683790250e+03 
       1.088849864903e-03       3.248587501816e+03 
       1.370780764555e-03       4.042430765436e+03 
       1.725710738496e-03       5.017871197393e+03 
       2.172541102099e-03       6.207959185152e+03 
       2.735067201600e-03       7.646176550600e+03 
       3.443245603059e-03       9.362431800408e+03 
       4.334789388739e-03       1.137658056230e+04 
       5.457176516260e-03       1.368812426512e+04 
       6.870178192965e-03       1.626086767598e+04 
       8.649041910678e-03       1.900407225787e+04 
       1.088849864903e-02       2.174521744240e+04 
       1.370780764555e-02       2.419975694401e+04 
       1.725710738442e-02       2.597013109198e+04 
       2.172540938506e-02       2.658395692785e+04 
       2.734997564961e-02       2.568487186087e+04 
       3.437245182815e-02       2.338604686271e+04 
       4.206986491677e-02       2.079852532191e+04 
       4.789409976952e-02       1.923969422517e+04 
       5.229148694513e-02       1.831172789651e+04 
       5.603179002596e-02       1.764835567939e+04 
       5.942697781265e-02       1.710525519621e+04 
       6.262456800948e-02       1.661346530622e+04 
       6.570616480929e-02       1.613422414261e+04 
       6.872227815523e-02       1.564406121646e+04 
       7.170689553539e-02       1.513034778512e+04 
       7.468443545349e-02       1.458757858676e+04 
       7.767340913423e-02       1.401628386400e+04 
       8.068850048218e-02       1.342273771430e+04 
       8.374182028900e-02       1.281659334783e+04 
       8.684369981054e-02       1.221077531178e+04 
       9.000321306047e-02       1.161970541233e+04 
       9.322853191774e-02       1.105721514680e+04 
       9.652717413801e-02       1.053569996943e+04 
       9.990618042331e-02       1.006440719983e+04 
       1.033722430964e-01       9.648252254495e+03 
       1.069318008920e-01       9.287189010205e+03 
       1.105911094794e-01       8.975559454565e+03 
       1.143562942625e-01       8.702701625287e+03 
       1.182333900363e-01       8.453354420950e+03 
       1.222283707991e-01       8.209599416591e+03 
       1.263471721723e-01       7.953985967245e+03 
       1.305957083150e-01       7.672316488054e+03 
       1.349798848491e-01       7.356704808395e+03 
       1.395056090590e-01       7.007709515265e+03 
       1.441787984690e-01       6.635641959629e+03 
       1.490053887946e-01       6.257744664037e+03 
       1.539913421989e-01       5.894769322991e+03 
       1.591426567434e-01       5.565908202331e+03 
       1.644653778959e-01       5.283393462834e+03 
       1.699656129419e-01       5.049319627479e+03 
       1.756495491349e-01       4.855581676249e+03 
       1.815234764128e-01       4.683631227017e+03 
       1.875938155072e-01       4.510215825757e+03 
       1.938671522759e-01       4.316686318478e+03 
       2.003502791069e-01       4.096417677756e+03 
       2.070502442847e-01       3.856485770052e+03 
       2.139744102691e-01       3.614546714732e+03 
       2.211305219541e-01       3.391616286515e+03 
       2.285267861290e-01       3.202601444407e+03 
       2.361719636042e-01       3.048201783144e+03 
       2.440754757890e-01       2.915976568952e+03 
       2.522475279556e-01       2.786634833091e+03 
       2.606992520246e-01       2.644360286752e+03 
       2.694428725015e-01       2.486960872243e+03 
       2.784919002517e-01       2.327102928263e+03 
       2.878613601926e-01       2.181399425507e+03 
       2.975680608325e-01       2.058862003429e+03 
       3.076309160541e-01       1.954239465534e+03 
       3.180713328671e-01       1.853127733192e+03 
       3.289136833758e-01       1.745253687976e+03 
       3.401858854459e-01       1.632472273124e+03 
       3.519201252588e-01       1.526130642927e+03 
       3.641537672895e-01       1.433547233249e+03 
       3.769305150302e-01       1.350721412642e+03 
       3.903019118631e-01       1.267941833716e+03 
       4.043293104633e-01       1.182720528249e+03 
       4.190864985832e-01       1.101174183520e+03 
       4.346632619123e-01       1.027892509116e+03 
       4.511703133337e-01       9.587848191780e+02 
       4.687462626110e-01       8.889035744112e+02 
       4.875677162671e-01       8.212918842644e+02 
       5.078643289951e-01       7.585955264349e+02 
       5.299419676042e-01       6.969970645691e+02 
       5.542197149781e-01       6.363003727034e+02 
       5.812916173425e-01       5.780900062107e+02 
       6.120351424149e-01       5.200465109217e+02 
       6.478135614008e-01       4.626674676071e+02 
       6.908812274196e-01       4.045626755115e+02 
       7.452616457730e-01       3.449647625908e+02 
       8.187920094471e-01       2.823298835697e+02 
       9.278504282767e-01       2.154906903466e+02 
       1.103742314542e+00       1.470627237699e+02 
       1.373190076798e+00       8.997628883001e+01 
       1.727849763904e+00       5.305196182244e+01 
       2.175223600030e+00       3.091301881135e+01 
       2.738444244840e+00       1.784022966126e+01 
       3.447497048605e+00       1.020696103471e+01 
       4.340141641574e+00       5.794216118601e+00 
       5.463914603363e+00       3.265990719165e+00 
       6.878660942047e+00       1.829029487279e+00 
