# Matter power spectrum P(k) at redshift z=0
# for k=1.24414e-05 to 7.85835 h/Mpc,
# number of wavenumbers equal to 120
#    1:k (h/Mpc)              2:P (Mpc/h)^3        
       1.244139246182e-05       3.128416491622e+01 
       1.566278512829e-05       3.896137267486e+01 
       1.971827821748e-05       4.852255457991e+01 
       2.482384152481e-05       6.043000311032e+01 
       3.125136491394e-05       7.525943661074e+01 
       3.934313744341e-05       9.372778668384e+01 
       4.953007550722e-05       1.167277829444e+02 
       6.235467070412e-05       1.453709770668e+02 
       7.849987949347e-05       1.810411771091e+02 
       9.882549311711e-05       2.254607754033e+02 
       1.244139246182e-04       2.807728452052e+02 
       1.566278512829e-04       3.496424692654e+02 
       1.971827821748e-04       4.353811337380e+02 
       2.482384152481e-04       5.420982156880e+02 
       3.125136491394e-04       6.748832662142e+02 
       3.934313744341e-04       8.400214617770e+02 
       4.953007550722e-04       1.045242012400e+03 
       6.235467070412e-04       1.299995249590e+03 
       7.849987949347e-04       1.615748720042e+03 
       9.882549311711e-04       2.006282579382e+03 
       1.244139246182e-03       2.487934686985e+03 
       1.566278512829e-03       3.079411512418e+03 
       1.971827821748e-03       3.802138830019e+03 
       2.482384152481e-03       4.678956967918e+03 
       3.125136491394e-03       5.732548271720e+03 
       3.934313744341e-03       6.982489871735e+03 
       4.953007550722e-03       8.440591673780e+03 
       6.235467070412e-03       1.010372514775e+04 
       7.849987949347e-03       1.194293679641e+04 
       9.882549311711e-03       1.389107440990e+04 
       1.244139246182e-02       1.582315439879e+04 
       1.566278512829e-02       1.754070473592e+04 
       1.971827821732e-02       1.876277841075e+04 
       2.482384086487e-02       1.915893484930e+04 
       3.125099641000e-02       1.846905022511e+04 
       3.930350840897e-02       1.674330381977e+04 
       4.848483306858e-02       1.470183447393e+04 
       5.575984235616e-02       1.341888760358e+04 
       6.113913862383e-02       1.268491336195e+04 
       6.565091491709e-02       1.217618634300e+04 
       6.971566968857e-02       1.176931183509e+04 
       7.352674629616e-02       1.140811560708e+04 
       7.718891984804e-02       1.106054418142e+04 
       8.076608545442e-02       1.070882685477e+04 
       8.430075300750e-02       1.034232070601e+04 
       8.782318797722e-02       9.956780798856e+03 
       9.135616140879e-02       9.551994264465e+03 
       9.491762031071e-02       9.132222928246e+03 
       9.852228467394e-02       8.703825889725e+03 
       1.021826512170e-01       8.275815228805e+03 
       1.059096503763e-01       7.858145210117e+03 
       1.097130909662e-01       7.460816049255e+03 
       1.136019695707e-01       7.092429698553e+03 
       1.175846907635e-01       6.759608270748e+03 
       1.216692267514e-01       6.466138550855e+03 
       1.258632347660e-01       6.211923064533e+03 
       1.301741442903e-01       5.993509446419e+03 
       1.346092223153e-01       5.803553928838e+03 
       1.391756223390e-01       5.631630428227e+03 
       1.438804211988e-01       5.465440504004e+03 
       1.487306467674e-01       5.292557886016e+03 
       1.537332988300e-01       5.102727611439e+03 
       1.588953649902e-01       4.890019291879e+03 
       1.642238331397e-01       4.654310272556e+03 
       1.697257018188e-01       4.401867617163e+03 
       1.754079896638e-01       4.144267419264e+03 
       1.812777450518e-01       3.895686624363e+03 
       1.873420570006e-01       3.669693671183e+03 
       1.936080683486e-01       3.475075705760e+03 
       2.000829922199e-01       3.314142122879e+03 
       2.067741327617e-01       3.181866215865e+03 
       2.136889111369e-01       3.066528243612e+03 
       2.208348977474e-01       2.952098765413e+03 
       2.282198516700e-01       2.825195133013e+03 
       2.358517683048e-01       2.680218034388e+03 
       2.437389362775e-01       2.521129897565e+03 
       2.518900047106e-01       2.359226405940e+03 
       2.603140620982e-01       2.208725621197e+03 
       2.690207281990e-01       2.080462050616e+03 
       2.780202606284e-01       1.976105135092e+03 
       2.873236781971e-01       1.888085624096e+03 
       2.969429035488e-01       1.803632560803e+03 
       3.068909283296e-01       1.711527072006e+03 
       3.171820050234e-01       1.608970105342e+03 
       3.278318707852e-01       1.503524830596e+03 
       3.388580101829e-01       1.406397768406e+03 
       3.502799658552e-01       1.324463868932e+03 
       3.621197088873e-01       1.255340102788e+03 
       3.744020844619e-01       1.189800382172e+03 
       3.871553534503e-01       1.120324834300e+03 
       4.004118576234e-01       1.047080728934e+03 
       4.142088459511e-01       9.771742342371e+02 
       4.285895132903e-01       9.161488165944e+02 
       4.436043226516e-01       8.621922270068e+02 
       4.593127113134e-01       8.090323013123e+02 
       4.757853243763e-01       7.541846438816e+02 
       4.931069852473e-01       7.011574452939e+02 
       5.113807150339e-01       6.534773428469e+02 
       5.307332762533e-01       6.090803997144e+02 
       5.513229841429e-01       5.644106484062e+02 
       5.733509816717e-01       5.208415589354e+02 
       5.970779667260e-01       4.805402781935e+02 
       6.228498017174e-01       4.413411736022e+02 
       6.511381780398e-01       4.025819211944e+02 
       6.826079926233e-01       3.655264174136e+02 
       7.182347099804e-01       3.287942890408e+02 
       7.595212160112e-01       2.925285459141e+02 
       8.089271675814e-01       2.560224259502e+02 
       8.707879568746e-01       2.187931746620e+02 
       9.534353742942e-01       1.799034971642e+02 
       1.074169385442e+00       1.385968380171e+02 
       1.267329938800e+00       9.591679877417e+01 
       1.569409724819e+00       5.900447324150e+01 
       1.973949528113e+00       3.464112940663e+01 
       2.485028447127e+00       2.007934617310e+01 
       3.128465387258e+00       1.152714263540e+01 
       3.938504575911e+00       6.560438530035e+00 
       4.958283495082e+00       3.704551402748e+00 
       6.242109090839e+00       2.077075100669e+00 
       7.858349757648e+00       1.157075716128e+00 
