# Matter power spectrum P(k) at redshift z=0
# for k=1.69673e-05 to 8.51368 h/Mpc,
# number of wavenumbers equal to 119
#    1:k (h/Mpc)              2:P (Mpc/h)^3        
       1.696728322748e-05       1.357335229333e+01 
       2.136054402419e-05       1.693701504463e+01 
       2.689133168180e-05       2.113423238907e+01 
       3.385418081120e-05       2.637156221540e+01 
       4.261988851870e-05       3.290674131204e+01 
       5.365526070402e-05       4.106135922483e+01 
       6.754797117673e-05       5.123666530361e+01 
       8.503785742953e-05       6.393327718145e+01 
       1.070563196826e-04       7.977572683462e+01 
       1.347759213415e-04       9.954305778886e+01 
       1.696728322748e-04       1.242068356472e+02 
       2.136054402419e-04       1.549783432141e+02 
       2.689133168180e-04       1.933670009695e+02 
       3.385418081120e-04       2.412523394641e+02 
       4.261988851870e-04       3.009720408378e+02 
       5.365526070402e-04       3.754286106585e+02 
       6.754797117673e-04       4.682171242299e+02 
       8.503785742953e-04       5.837752422027e+02 
       1.070563196826e-03       7.275562749798e+02 
       1.347759213415e-03       9.062224211003e+02 
       1.696728322748e-03       1.127847335462e+03 
       2.136054402419e-03       1.401920592645e+03 
       2.689133168180e-03       1.739795691565e+03 
       3.385418081120e-03       2.154424226440e+03 
       4.261988851870e-03       2.659986465891e+03 
       5.365526070402e-03       3.271123005384e+03 
       6.754797117673e-03       4.001394035163e+03 
       8.503785742953e-03       4.860664290874e+03 
       1.070563196826e-02       5.850442289790e+03 
       1.347759213415e-02       6.957825570220e+03 
       1.696728322748e-02       8.145742357782e+03 
       2.136054402419e-02       9.341469109191e+03 
       2.689133168129e-02       1.042607749798e+04 
       3.385417908733e-02       1.123590823938e+04 
       4.261907561130e-02       1.159814232743e+04 
       5.357909924194e-02       1.142589866380e+04 
       6.578737740327e-02       1.090206653875e+04 
       7.517496959401e-02       1.046917088114e+04 
       8.220536243267e-02       1.016729475520e+04 
       8.815433443231e-02       9.926351596182e+03 
       9.353933658548e-02       9.713373973579e+03 
       9.860247417296e-02       9.511209953745e+03 
       1.034766459143e-01       9.309693917240e+03 
       1.082436530079e-01       9.102548900251e+03 
       1.129583040052e-01       8.886061200218e+03 
       1.176598416930e-01       8.658569820740e+03 
       1.223779304731e-01       8.420110280105e+03 
       1.271360441493e-01       8.172227760669e+03 
       1.319535024077e-01       7.917719530080e+03 
       1.368467561125e-01       7.660354182614e+03 
       1.418302314684e-01       7.404502033674e+03 
       1.469169029803e-01       7.154654837837e+03 
       1.521186930492e-01       6.915010705005e+03 
       1.574467569383e-01       6.688937876649e+03 
       1.629116896654e-01       6.478556549759e+03 
       1.685236783112e-01       6.284362433532e+03 
       1.742926152803e-01       6.105115684855e+03 
       1.802281830748e-01       5.937704978803e+03 
       1.863399179600e-01       5.777574383104e+03 
       1.926372578239e-01       5.619172884923e+03 
       1.991295781664e-01       5.456918376741e+03 
       2.058262192435e-01       5.286147415147e+03 
       2.127365067837e-01       5.104226550497e+03 
       2.198697682938e-01       4.911247219210e+03 
       2.272353467075e-01       4.710280294104e+03 
       2.348426129570e-01       4.506973945698e+03 
       2.427009789447e-01       4.308340402575e+03 
       2.508199123194e-01       4.121181751686e+03 
       2.592089544235e-01       3.950140885130e+03 
       2.678777427481e-01       3.796470712530e+03 
       2.768360392158e-01       3.657535095997e+03 
       2.860937655995e-01       3.527557836645e+03 
       2.956610473797e-01       3.398407312153e+03 
       3.055482673522e-01       3.263372819642e+03 
       3.157661303261e-01       3.119906024261e+03 
       3.263257403067e-01       2.970452534272e+03 
       3.372386916655e-01       2.821228471645e+03 
       3.485171759623e-01       2.679752236932e+03 
       3.601741063379e-01       2.551682752235e+03 
       3.722232617587e-01       2.437664794254e+03 
       3.846794539008e-01       2.333236168292e+03 
       3.975587201558e-01       2.231442202694e+03 
       4.108785471726e-01       2.126501525439e+03 
       4.246581305830e-01       2.017328925057e+03 
       4.389186782046e-01       1.908430020742e+03 
       4.536837661722e-01       1.806092509227e+03 
       4.689797603294e-01       1.713762835701e+03 
       4.848363190394e-01       1.629697295336e+03 
       5.012869987370e-01       1.548441192728e+03 
       5.183699905571e-01       1.465966251187e+03 
       5.361290260374e-01       1.382880885081e+03 
       5.546145033729e-01       1.303387617847e+03 
       5.738849047966e-01       1.230404785142e+03 
       5.940086031459e-01       1.162391038863e+03 
       6.150661959388e-01       1.095585432461e+03 
       6.371535653783e-01       1.028875668553e+03 
       6.603859542956e-01       9.645851431265e+02 
       6.849034908103e-01       9.044700117220e+02 
       7.108788227130e-01       8.468804774376e+02 
       7.385278976849e-01       7.898446490976e+02 
       7.681255615105e-01       7.343932155027e+02 
       8.000287633103e-01       6.815220475058e+02 
       8.347121970229e-01       6.296498212927e+02 
       8.728251060937e-01       5.785062165304e+02 
       9.152858141084e-01       5.285945268840e+02 
       9.634472348796e-01       4.787834497146e+02 
       1.019404549051e+00       4.289673934053e+02 
       1.086608660047e+00       3.782058319227e+02 
       1.171189150917e+00       3.256266397006e+02 
       1.285024661528e+00       2.698009021434e+02 
       1.452885944322e+00       2.093896937226e+02 
       1.722880982469e+00       1.460892774482e+02 
       2.139937769602e+00       9.127823210401e+01 
       2.692278587991e+00       5.470707709585e+01 
       3.389355774544e+00       3.232739125355e+01 
       4.266946062828e+00       1.888558093585e+01 
       5.371766829234e+00       1.092034988306e+01 
       6.762653767556e+00       6.256609702597e+00 
       8.513676679142e+00       3.554938589964e+00 
