# Matter power spectrum P(k) at redshift z=0
# for k=8.8019e-06 to 6.99943 h/Mpc,
# number of wavenumbers equal to 121
#    1:k (h/Mpc)              2:P (Mpc/h)^3        
       8.801901185166e-06       6.361326675802e+01 
       1.108093707411e-05       7.943226333383e+01 
       1.395007326908e-05       9.918495605044e+01 
       1.756210173484e-05       1.238494236811e+02 
       2.210937615851e-05       1.546468654556e+02 
       2.783405548486e-05       1.931018920250e+02 
       3.504099976318e-05       2.411178131337e+02 
       4.411400505654e-05       3.010702535434e+02 
       5.553624198169e-05       3.759236972421e+02 
       6.991598630630e-05       4.693761130637e+02 
       8.801901185166e-05       5.860377077342e+02 
       1.108093707411e-04       7.316506896458e+02 
       1.395007326908e-04       9.133570087168e+02 
       1.756210173484e-04       1.140019954972e+03 
       2.210937615851e-04       1.422602006604e+03 
       2.783405548486e-04       1.774594099153e+03 
       3.504099976318e-04       2.212478974700e+03 
       4.411400505654e-04       2.756194691706e+03 
       5.553624198169e-04       3.429546363835e+03 
       6.991598630630e-04       4.260486605208e+03 
       8.801901185166e-04       5.281094099768e+03 
       1.108093707411e-03       6.526867552135e+03 
       1.395007326908e-03       8.034638907979e+03 
       1.756210173484e-03       9.839543023811e+03 
       2.210937615851e-03       1.196878118278e+04 
       2.783405548486e-03       1.443313201612e+04 
       3.504099976318e-03       1.721530838152e+04 
       4.411400505654e-03       2.025378319667e+04 
       5.553624198169e-03       2.342480506969e+04 
       6.991598630630e-03       2.652618194565e+04 
       8.801901185166e-03       2.924595736419e+04 
       1.108093707411e-02       3.116738136394e+04 
       1.395007326890e-02       3.179623065843e+04 
       1.756210103900e-02       3.067053804250e+04 
       2.210902585316e-02       2.764738920132e+04 
       2.779943550042e-02       2.330455659893e+04 
       3.419840085187e-02       1.932199486730e+04 
       3.917407374161e-02       1.720198574161e+04 
       4.288159669592e-02       1.607336204780e+04 
       4.600824253100e-02       1.531536976001e+04 
       4.883334796950e-02       1.471287907402e+04 
       5.148672911920e-02       1.416811159115e+04 
       5.403929322521e-02       1.363224264347e+04 
       5.653452872611e-02       1.308133258153e+04 
       5.900149436000e-02       1.250196549942e+04 
       6.146095063839e-02       1.189403130582e+04 
       6.392856229926e-02       1.126251903001e+04 
       6.641670581263e-02       1.061899106965e+04 
       6.893555376060e-02       9.979597680432e+03 
       7.149375812499e-02       9.359678178584e+03 
       7.409889846525e-02       8.775635379672e+03 
       7.675778577777e-02       8.241772986751e+03 
       7.947667422289e-02       7.768037315587e+03 
       8.226141200373e-02       7.359432768447e+03 
       8.511755084432e-02       7.016092242784e+03 
       8.805042654877e-02       6.731634515149e+03 
       9.106521888907e-02       6.495190885754e+03 
       9.416699642227e-02       6.290201127255e+03 
       9.736075014550e-02       6.098798640226e+03 
       1.006514187957e-01       5.900857148995e+03 
       1.040439078738e-01       5.680742251188e+03 
       1.075431039897e-01       5.427881333693e+03 
       1.111538858038e-01       5.140555198618e+03 
       1.148811326238e-01       4.827374188237e+03 
       1.187297315813e-01       4.504150848853e+03 
       1.227045842146e-01       4.190930791656e+03 
       1.268106132340e-01       3.906615907597e+03 
       1.310527702040e-01       3.665093268961e+03 
       1.354360448595e-01       3.470319349079e+03 
       1.399654767532e-01       3.316612528037e+03 
       1.446461699285e-01       3.188808445280e+03 
       1.494833112981e-01       3.068297326669e+03 
       1.544821934141e-01       2.936334081303e+03 
       1.596482423125e-01       2.781191305689e+03 
       1.649870511331e-01       2.604973958686e+03 
       1.705044202438e-01       2.421448950448e+03 
       1.762064046512e-01       2.248973371424e+03 
       1.820993695656e-01       2.100588935459e+03 
       1.881900551184e-01       1.980839920359e+03 
       1.944856514155e-01       1.883945869855e+03 
       2.009938853763e-01       1.795841103160e+03 
       2.077231211625e-01       1.702563735297e+03 
       2.146824764861e-01       1.598425594875e+03 
       2.218819577249e-01       1.488413235248e+03 
       2.293326176238e-01       1.383866515607e+03 
       2.370467404797e-01       1.294407606952e+03 
       2.450380611981e-01       1.219844852492e+03 
       2.533220265894e-01       1.152413127802e+03 
       2.619161099463e-01       1.083794944988e+03 
       2.708401935686e-01       1.011472950745e+03 
       2.801170388981e-01       9.407376994917e+02 
       2.897728708886e-01       8.772089190937e+02 
       2.998381130995e-01       8.216227953857e+02 
       3.103483241827e-01       7.691109213567e+02 
       3.213454071971e-01       7.163366274716e+02 
       3.328791941562e-01       6.646049520046e+02 
       3.450095553716e-01       6.169777143948e+02 
       3.578092566109e-01       5.731927734859e+02 
       3.713679043873e-01       5.309663818069e+02 
       3.857975122909e-01       4.896335647610e+02 
       4.012405474366e-01       4.506749028341e+02 
       4.178818880665e-01       4.139152109104e+02 
       4.359671665501e-01       3.780457223759e+02 
       4.558319615649e-01       3.435742422879e+02 
       4.779502949586e-01       3.103058776087e+02 
       5.030193723942e-01       2.776603880321e+02 
       5.321167399397e-01       2.455942166177e+02 
       5.670127706846e-01       2.135500411722e+02 
       6.108425867190e-01       1.810363392123e+02 
       6.696621145619e-01       1.473455358352e+02 
       7.560802090073e-01       1.119261345720e+02 
       8.948079921998e-01       7.600236463091e+01 
       1.110170216433e+00       4.590399720082e+01 
       1.396581995590e+00       2.658513540881e+01 
       1.758178577279e+00       1.523012148797e+01 
       2.213415654701e+00       8.653085102686e+00 
       2.786525214555e+00       4.880202013215e+00 
       3.508027403209e+00       2.733929353561e+00 
       4.416344843170e+00       1.522154122705e+00 
       5.559848750312e+00       8.427179876455e-01 
       6.999434877500e+00       4.641512397336e-01 
