# Matter power spectrum P(k) at redshift z=0
# for k=1.00475e-05 to 7.98922 h/Mpc,
# number of wavenumbers equal to 121
#    1:k (h/Mpc)              2:P (Mpc/h)^3        
       1.004750944947e-05       5.516945940809e+01 
       1.264906497118e-05       6.883163708762e+01 
       1.592422932765e-05       8.587705134717e+01 
       2.004741696382e-05       1.071434419300e+02 
       2.523820265658e-05       1.336758903107e+02 
       3.177301467238e-05       1.667781613075e+02 
       3.999985558037e-05       2.080764761774e+02 
       5.035683465823e-05       2.595990878183e+02 
       6.339549880876e-05       3.238751427164e+02 
       7.981020444371e-05       4.040573474522e+02 
       1.004750944947e-04       5.040737512987e+02 
       1.264906497118e-04       6.288145350773e+02 
       1.592422932765e-04       7.843601780824e+02 
       2.004741696382e-04       9.782567762863e+02 
       2.523820265658e-04       1.219842164942e+03 
       3.177301467238e-04       1.520621503514e+03 
       3.999985558037e-04       1.894682281791e+03 
       5.035683465823e-04       2.359126711497e+03 
       6.339549880876e-04       2.934485409948e+03 
       7.981020444371e-04       3.645053835992e+03 
       1.004750944947e-03       4.519021157912e+03 
       1.264906497118e-03       5.587954125799e+03 
       1.592422932765e-03       6.885744358758e+03 
       2.004741696382e-03       8.446082971307e+03 
       2.523820265658e-03       1.029776482154e+04 
       3.177301467238e-03       1.245786403646e+04 
       3.999985558037e-03       1.492198088769e+04 
       5.035683465823e-03       1.765023233219e+04 
       6.339549880876e-03       2.054961254626e+04 
       7.981020444371e-03       2.345499487277e+04 
       1.004750944947e-02       2.610456591942e+04 
       1.264906497118e-02       2.812200814812e+04 
       1.592422932758e-02       2.903429683641e+04 
       2.004741661833e-02       2.835723194675e+04 
       2.523798687638e-02       2.584924674742e+04 
       3.174759258721e-02       2.190616087036e+04 
       3.926961156122e-02       1.800065563565e+04 
       4.536097655161e-02       1.582346762007e+04 
       4.983024638245e-02       1.472129507203e+04 
       5.355612075031e-02       1.402256925516e+04 
       5.690202973465e-02       1.349279481695e+04 
       6.003317177182e-02       1.303082241881e+04 
       6.303830279802e-02       1.258267280177e+04 
       6.597121519721e-02       1.211887531120e+04 
       6.886753011117e-02       1.162457863180e+04 
       7.175251385794e-02       1.109493373091e+04 
       7.464511740098e-02       1.053248167530e+04 
       7.756023760216e-02       9.946698388069e+03 
       8.051006497046e-02       9.351882889538e+03 
       8.350492840719e-02       8.764239014092e+03 
       8.655384687454e-02       8.201006824512e+03 
       8.966490207408e-02       7.678064038669e+03 
       9.284549735475e-02       7.208309472414e+03 
       9.610254176643e-02       6.800516549441e+03 
       9.944258335261e-02       6.458127461700e+03 
       1.028719070905e-01       6.178450117628e+03 
       1.063966076254e-01       5.953642962373e+03 
       1.100226436688e-01       5.769966574038e+03 
       1.137558788368e-01       5.609704407493e+03 
       1.176021123491e-01       5.453054685769e+03 
       1.215671021108e-01       5.280602731270e+03 
       1.256565821067e-01       5.077261584321e+03 
       1.298762756401e-01       4.835659883642e+03 
       1.342319056847e-01       4.558518033452e+03 
       1.387292034473e-01       4.258011809391e+03 
       1.433739161243e-01       3.953866049280e+03 
       1.481718147661e-01       3.667815627257e+03 
       1.531287031171e-01       3.418456756768e+03 
       1.582504282720e-01       3.216507081270e+03 
       1.635428939730e-01       3.061961342227e+03 
       1.690120773572e-01       2.944498961289e+03 
       1.746640499584e-01       2.846473109871e+03 
       1.805050037630e-01       2.744143233377e+03 
       1.865412831247e-01       2.619600399157e+03 
       1.927794233528e-01       2.467175465731e+03 
       1.992261968280e-01       2.295966996495e+03 
       2.058886675507e-01       2.123618524978e+03 
       2.127742551279e-01       1.969256628538e+03 
       2.198908093464e-01       1.845292903980e+03 
       2.272466966921e-01       1.751718065606e+03 
       2.348509004725e-01       1.676154894363e+03 
       2.427131366028e-01       1.601027751766e+03 
       2.508439876647e-01       1.513319601503e+03 
       2.592550585732e-01       1.411603940355e+03 
       2.679591581489e-01       1.307388614201e+03 
       2.769705121665e-01       1.215215444364e+03 
       2.863050151369e-01       1.141477701402e+03 
       2.959805303294e-01       1.081426675734e+03 
       3.060172505576e-01       1.023281399149e+03 
       3.164381363613e-01       9.588984089695e+02 
       3.272694538444e-01       8.904347502933e+02 
       3.385414422836e-01       8.266355698765e+02 
       3.502891527090e-01       7.730218982774e+02 
       3.625535145812e-01       7.260403127920e+02 
       3.753827109454e-01       6.788562724652e+02 
       3.888339770533e-01       6.297357181580e+02 
       4.029759900112e-01       5.830476786469e+02 
       4.178920986601e-01       5.418496229986e+02 
       4.336847728757e-01       5.034479813434e+02 
       4.504818641531e-01       4.646075038953e+02 
       4.684456281406e-01       4.271516171808e+02 
       4.877860862249e-01       3.928628857689e+02 
       5.087814402484e-01       3.594481035275e+02 
       5.318104106830e-01       3.266746601987e+02 
       5.574056673608e-01       2.955577118140e+02 
       5.863465924293e-01       2.648369145079e+02 
       6.198300152143e-01       2.347352233049e+02 
       6.598067261688e-01       2.046542596818e+02 
       7.096982110665e-01       1.742238997961e+02 
       7.760441425132e-01       1.427366815581e+02 
       8.723790120535e-01       1.096210472504e+02 
       1.025886263420e+00       7.565388978813e+01 
       1.267683911907e+00       4.622234672311e+01 
       1.594082347140e+00       2.684985423263e+01 
       2.006801071036e+00       1.540994845629e+01 
       2.526412773128e+00       8.769372247127e+00 
       3.180565240734e+00       4.952710155528e+00 
       4.004094405429e+00       2.777571822351e+00 
       5.040856198218e+00       1.548017398062e+00 
       6.346061965136e+00       8.577824302046e-01 
       7.989218672730e+00       4.727876086729e-01 
