# Matter power spectrum P(k) at redshift z=0
# for k=1.19463e-05 to 7.5471 h/Mpc,
# number of wavenumbers equal to 120
#    1:k (h/Mpc)              2:P (Mpc/h)^3        
       1.194632294393e-05       3.281332888410e+01 
       1.503952953161e-05       4.069676740915e+01 
       1.893364590878e-05       5.047420232293e+01 
       2.383604797247e-05       6.260061188390e+01 
       3.000780650929e-05       7.764028357773e+01 
       3.777759016674e-05       9.629302734753e+01 
       4.755916825726e-05       1.194266451446e+02 
       5.987344548286e-05       1.481172100332e+02 
       7.537620201004e-05       1.836988658583e+02 
       9.489301615497e-05       2.278254088605e+02 
       1.194632294393e-04       2.825462251527e+02 
       1.503952953161e-04       3.503996912315e+02 
       1.893364590878e-04       4.345274609673e+02 
       2.383604797247e-04       5.388133094776e+02 
       3.000780650929e-04       6.680498936373e+02 
       3.777759016674e-04       8.281358093734e+02 
       4.755916825726e-04       1.026303197446e+03 
       5.987344548286e-04       1.271372740798e+03 
       7.537620201004e-04       1.574028623710e+03 
       9.489301615497e-04       1.947097325775e+03 
       1.194632294393e-03       2.405789007638e+03 
       1.503952953161e-03       2.967465971644e+03 
       1.893364590878e-03       3.652262271129e+03 
       2.383604797247e-03       4.481725514676e+03 
       3.000780650929e-03       5.477618575490e+03 
       3.777759016674e-03       6.659385979277e+03 
       4.755916825726e-03       8.040050073905e+03 
       5.987344548286e-03       9.619772339213e+03 
       7.537620201004e-03       1.137597695418e+04 
       9.489301615497e-03       1.325153636733e+04 
       1.194632294393e-02       1.513679836780e+04 
       1.503952953161e-02       1.685314797753e+04 
       1.893364590807e-02       1.814418590938e+04 
       2.383604593434e-02       1.870543133542e+04 
       3.000696741430e-02       1.829174844619e+04 
       3.770723599535e-02       1.693885886638e+04 
       4.610065905901e-02       1.531728081181e+04 
       5.242061297377e-02       1.429056790924e+04 
       5.720514646311e-02       1.364788702159e+04 
       6.128150459633e-02       1.317062159264e+04 
       6.498506371109e-02       1.277048080131e+04 
       6.847495799443e-02       1.240452094537e+04 
       7.183943820471e-02       1.204870439429e+04 
       7.513322743773e-02       1.168855059442e+04 
       7.839319934397e-02       1.131593359232e+04 
       8.164587562546e-02       1.092737131485e+04 
       8.491138065475e-02       1.052313085551e+04 
       8.820569066866e-02       1.010669955606e+04 
       9.154199139799e-02       9.683685749375e+03 
       9.493153779105e-02       9.261855598113e+03 
       9.838422022538e-02       8.849784198564e+03 
       1.019089496909e-01       8.455711605088e+03 
       1.055139269311e-01       8.087115941759e+03 
       1.092068346704e-01       7.749573368693e+03 
       1.129949773445e-01       7.445917662284e+03 
       1.168853840605e-01       7.176173398490e+03 
       1.208848852067e-01       6.936850205197e+03 
       1.250001698166e-01       6.721106811496e+03 
       1.292378286545e-01       6.519716017409e+03 
       1.336043866054e-01       6.321900356881e+03 
       1.381063270335e-01       6.117113379028e+03 
       1.427501101626e-01       5.896901424738e+03 
       1.475421871263e-01       5.656970720875e+03 
       1.524890110658e-01       5.398040968064e+03 
       1.575970464759e-01       5.126524373273e+03 
       1.628727778888e-01       4.852962739120e+03 
       1.683227189086e-01       4.590123483470e+03 
       1.739534225696e-01       4.349527969607e+03 
       1.797714939586e-01       4.138310918750e+03 
       1.857836060273e-01       3.957571681887e+03 
       1.919965195054e-01       3.801743179871e+03 
       1.984171078198e-01       3.659659211141e+03 
       2.050523879210e-01       3.516962705597e+03 
       2.119095579255e-01       3.362550002199e+03 
       2.189960425017e-01       3.192927815648e+03 
       2.263195469707e-01       3.013024028910e+03 
       2.338881211664e-01       2.833821083058e+03 
       2.417102342190e-01       2.667957769283e+03 
       2.497948616047e-01       2.524120192156e+03 
       2.581515860629e-01       2.402238727359e+03 
       2.667907143417e-01       2.294220808657e+03 
       2.757234122244e-01       2.188302606846e+03 
       2.849618609458e-01       2.075276160193e+03 
       2.945194389855e-01       1.954320359328e+03 
       3.044109343814e-01       1.833482963799e+03 
       3.146527942375e-01       1.722751763913e+03 
       3.252634201333e-01       1.627064224225e+03 
       3.362635208522e-01       1.542752714179e+03 
       3.476765375009e-01       1.460921642570e+03 
       3.595291610624e-01       1.375716523761e+03 
       3.718519692804e-01       1.288719548510e+03 
       3.846802193445e-01       1.206832682300e+03 
       3.980548464249e-01       1.134070002277e+03 
       4.120237376743e-01       1.067592667291e+03 
       4.266433800176e-01       1.001590810252e+03 
       4.419810229634e-01       9.349263018207e+02 
       4.581175631767e-01       8.713773747854e+02 
       4.751514598540e-01       8.133734419964e+02 
       4.932041538062e-01       7.581779928231e+02 
       5.124277331003e-01       7.030560809290e+02 
       5.330160469943e-01       6.499375724550e+02 
       5.552212780019e-01       6.001260083515e+02 
       5.793794629045e-01       5.512492864630e+02 
       6.059512933382e-01       5.033259497612e+02 
       6.355902596097e-01       4.570858775485e+02 
       6.692624712422e-01       4.110890591500e+02 
       7.084705202893e-01       3.655381289011e+02 
       7.557024222431e-01       3.194169867271e+02 
       8.154057652925e-01       2.720619388653e+02 
       8.962582964657e-01       2.222781604223e+02 
       1.016405800438e+00       1.691546935442e+02 
       1.210335789591e+00       1.149205951847e+02 
       1.506574764613e+00       6.998899206838e+01 
       1.895754927452e+00       4.108871720388e+01 
       2.386603801224e+00       2.382669421529e+01 
       3.004556152684e+00       1.367785603881e+01 
       3.782512091772e+00       7.780884007754e+00 
       4.761900592750e+00       4.390071931493e+00 
       5.994877664651e+00       2.458602163114e+00 
       7.547103832626e+00       1.367684255403e+00 
