# Matter power spectrum P(k) at redshift z=0
# for k=7.84939e-06 to 12.4569 h/Mpc,
# number of wavenumbers equal to 124
#    1:k (h/Mpc)              2:P (Mpc/h)^3        
       7.849394252615e-06       1.116771485143e+02 
       9.881801891809e-06       1.388139700045e+02 
       1.244045151591e-05       1.725444478038e+02 
       1.566160054758e-05       2.144706008106e+02 
       1.971678691871e-05       2.665829799478e+02 
       2.482196409090e-05       3.313554251940e+02 
       3.124900136468e-05       4.118612884097e+02 
       3.934016191118e-05       5.119176610199e+02 
       4.952632953408e-05       6.362635958823e+02 
       6.234995480335e-05       7.907783379840e+02 
       7.849394252615e-05       9.827477286156e+02 
       9.881801891809e-05       1.221184765377e+03 
       1.244045151591e-04       1.517208797821e+03 
       1.566160054758e-04       1.884479695764e+03 
       1.971678691871e-04       2.339669995280e+03 
       2.482196409090e-04       2.902932395405e+03 
       3.124900136468e-04       3.598284152429e+03 
       3.934016191118e-04       4.453790049535e+03 
       4.952632953408e-04       5.501402263159e+03 
       6.234995480335e-04       6.776294248152e+03 
       7.849394252615e-04       8.315350512237e+03 
       9.881801891809e-04       1.015399181240e+04 
       1.244045151591e-03       1.232049177398e+04 
       1.566160054758e-03       1.482773800185e+04 
       1.971678691871e-03       1.766206539486e+04 
       2.482196409090e-03       2.077053670629e+04 
       3.124900136468e-03       2.404801620517e+04 
       3.934016191118e-03       2.732382049422e+04 
       4.952632953408e-03       3.035827660455e+04 
       6.234995480335e-03       3.280252970511e+04 
       7.849394252615e-03       3.435677914314e+04 
       9.881801891809e-03       3.459319720304e+04 
       1.244045151591e-02       3.314156402941e+04 
       1.566160053333e-02       2.978678729353e+04 
       1.971676816175e-02       2.471603106457e+04 
       2.481790582893e-02       1.879861662512e+04 
       3.104961750418e-02       1.364217953760e+04 
       3.696476284193e-02       1.085400513145e+04 
       4.119816650626e-02       9.727030072192e+03 
       4.457470262109e-02       9.119461004499e+03 
       4.753676998434e-02       8.686256573149e+03 
       5.027168451860e-02       8.304026458332e+03 
       5.287433082988e-02       7.920090689755e+03 
       5.539984916086e-02       7.511729816370e+03 
       5.788362314083e-02       7.073399478815e+03 
       6.035013572085e-02       6.607761230773e+03 
       6.281737926699e-02       6.127116121608e+03 
       6.529925471555e-02       5.645019105377e+03 
       6.780696954471e-02       5.178591212471e+03 
       7.034989814427e-02       4.742805002669e+03 
       7.293613534299e-02       4.350265419337e+03 
       7.557286574913e-02       4.010276944119e+03 
       7.826661773238e-02       3.726940948905e+03 
       8.102344247237e-02       3.500475530551e+03 
       8.384904276166e-02       3.326074453311e+03 
       8.674886716092e-02       3.195505208733e+03 
       8.972817966550e-02       3.096365539189e+03 
       9.279211168787e-02       3.014317336686e+03 
       9.594570103936e-02       2.933810661104e+03 
       9.919392122501e-02       2.840907945869e+03 
       1.025417034675e-01       2.724645179400e+03 
       1.059939532808e-01       2.581099435731e+03 
       1.095555630177e-01       2.412822096569e+03 
       1.132314215529e-01       2.229876123483e+03 
       1.170264220867e-01       2.046366451881e+03 
       1.209454689440e-01       1.877160664090e+03 
       1.249934841681e-01       1.733555907365e+03 
       1.291754146640e-01       1.621094506443e+03 
       1.334962406182e-01       1.538683447511e+03 
       1.379609859024e-01       1.479210811237e+03 
       1.425747311586e-01       1.431061889868e+03 
       1.473426302531e-01       1.381135401490e+03 
       1.522699307851e-01       1.319766026926e+03 
       1.573619993317e-01       1.243472987811e+03 
       1.626243521253e-01       1.156774305979e+03 
       1.680626918732e-01       1.069471886247e+03 
       1.736829514755e-01       9.919785672415e+02 
       1.794913454627e-01       9.298628537816e+02 
       1.854944300787e-01       8.819695588773e+02 
       1.916991730965e-01       8.427664049455e+02 
       1.981130346709e-01       8.056175140491e+02 
       2.047440608448e-01       7.646547111226e+02 
       2.116009917393e-01       7.185434715042e+02 
       2.186933870162e-01       6.716064626891e+02 
       2.260317719377e-01       6.290710406084e+02 
       2.336278083272e-01       5.934928371805e+02 
       2.414944960220e-01       5.637432336925e+02 
       2.496464121303e-01       5.357387638372e+02 
       2.580999977001e-01       5.067765463333e+02 
       2.668739045195e-01       4.772431851799e+02 
       2.759894190181e-01       4.491544937935e+02 
       2.854709861249e-01       4.243853138640e+02 
       2.953468642147e-01       4.020910512689e+02 
       3.056499540726e-01       3.806745745021e+02 
       3.164188619294e-01       3.593247989932e+02 
       3.276992819099e-01       3.391065582655e+02 
       3.395458213379e-01       3.203608569668e+02 
       3.520244509955e-01       3.027630722163e+02 
       3.652158548929e-01       2.857847992818e+02 
       3.792201037413e-01       2.694439660823e+02 
       3.941633256798e-01       2.539224131981e+02 
       4.102074772188e-01       2.391107411346e+02 
       4.275650846774e-01       2.246935474765e+02 
       4.465222560617e-01       2.107650984044e+02 
       4.674760567939e-01       1.971929799377e+02 
       4.909981039578e-01       1.838224293156e+02 
       5.179488644855e-01       1.705302304739e+02 
       5.496967688438e-01       1.570871897762e+02 
       5.885707282785e-01       1.432354235466e+02 
       6.388718055101e-01       1.285529483034e+02 
       7.092655470413e-01       1.124147544318e+02 
       8.178629374176e-01       9.416851185001e+01 
       9.936643121334e-01       7.452076686501e+01 
       1.245806560208e+00       5.714701056340e+01 
       1.568226925919e+00       4.363691356513e+01 
       1.974279814952e+00       3.312254378973e+01 
       2.485471028168e+00       2.485780471014e+01 
       3.129022637638e+00       1.835926651544e+01 
       3.939206112602e+00       1.329321646189e+01 
       4.959166677450e+00       9.407334441634e+00 
       6.243220951564e+00       6.494096503956e+00 
       7.859749507370e+00       4.371568802043e+00 
       9.894838385164e+00       2.873585831348e+00 
       1.245686348868e+01       1.849194978375e+00 
