# Matter power spectrum P(k) at redshift z=2.5
# for k=7.46735e-06 to 11.8478 h/Mpc,
# number of wavenumbers equal to 124
#    1:k (h/Mpc)              2:P (Mpc/h)^3        
       7.467351644259e-06       2.633069285016e+01 
       9.400838743760e-06       3.283759876846e+01 
       1.183495478670e-05       4.095245564199e+01 
       1.489932532841e-05       5.107256305194e+01 
       1.875713927452e-05       6.369334297018e+01 
       2.361383928526e-05       7.943251125255e+01 
       2.972806234624e-05       9.906019436795e+01 
       3.742541313108e-05       1.235363420383e+02 
       4.711580363761e-05       1.540571511406e+02 
       5.931528249650e-05       1.921124985841e+02 
       7.467351644259e-05       2.395566581261e+02 
       9.400838743760e-05       2.986946533680e+02 
       1.183495478670e-04       3.723864793272e+02 
       1.489932532841e-04       4.641702370004e+02 
       1.875713927452e-04       5.784027384317e+02 
       2.361383928526e-04       7.204105659593e+02 
       2.972806234624e-04       8.966345412698e+02 
       3.742541313108e-04       1.114734571654e+03 
       4.711580363761e-04       1.383601988442e+03 
       5.931528249650e-04       1.713213401059e+03 
       7.467351644259e-04       2.114271305663e+03 
       9.400838743760e-04       2.597593365846e+03 
       1.183495478670e-03       3.173041300857e+03 
       1.489932532841e-03       3.847661879016e+03 
       1.875713927452e-03       4.622490694080e+03 
       2.361383928526e-03       5.489069108669e+03 
       2.972806234624e-03       6.425329866787e+03 
       3.742541313108e-03       7.390689308803e+03 
       4.711580363761e-03       8.322151404298e+03 
       5.931528249650e-03       9.130784599425e+03 
       7.467351644259e-03       9.700079117996e+03 
       9.400838743760e-03       9.891442776652e+03 
       1.183495478669e-02       9.559648811024e+03 
       1.489932526526e-02       8.602626738105e+03 
       1.875708281903e-02       7.060484524915e+03 
       2.360493228521e-02       5.235824704744e+03 
       2.939498292394e-02       3.717939458533e+03 
       3.445248433672e-02       2.993760923284e+03 
       3.809324589809e-02       2.717357317606e+03 
       4.106704240359e-02       2.581662651689e+03 
       4.370886202657e-02       2.494427570288e+03 
       4.616563250685e-02       2.419757001181e+03 
       4.851411754439e-02       2.340273455272e+03 
       5.079992024581e-02       2.247295987957e+03 
       5.305278788534e-02       2.137351896155e+03 
       5.529357019165e-02       2.010729086314e+03 
       5.753775216640e-02       1.870541395550e+03 
       5.979740480724e-02       1.721900945907e+03 
       6.208233521245e-02       1.571088866624e+03 
       6.440080113832e-02       1.424691103706e+03 
       6.675997429481e-02       1.288805916438e+03 
       6.916625146435e-02       1.168393888057e+03 
       7.162546958184e-02       1.066798961525e+03 
       7.414305801789e-02       9.856807762668e+02 
       7.672414850959e-02       9.248841321427e+02 
       7.937365573673e-02       8.826520186305e+02 
       8.209633705705e-02       8.557022973407e+02 
       8.489683713388e-02       8.394053963964e+02 
       8.777972142321e-02       8.280537687698e+02 
       9.074950134361e-02       8.154079260397e+02 
       9.381065319963e-02       7.956363468445e+02 
       9.696763243076e-02       7.645188931748e+02 
       1.002248844252e-01       7.205688337703e+02 
       1.035868529168e-01       6.656110366735e+02 
       1.070579868379e-01       6.043608398649e+02 
       1.106427464056e-01       5.431814760957e+02 
       1.143456091606e-01       4.883529149999e+02 
       1.181710766365e-01       4.444486648314e+02 
       1.221236823175e-01       4.134437641901e+02 
       1.262080015246e-01       3.944077244566e+02 
       1.304286638634e-01       3.838383392542e+02 
       1.347903688561e-01       3.766420298061e+02 
       1.392979053805e-01       3.668112735730e+02 
       1.439561755391e-01       3.498734466051e+02 
       1.487702235891e-01       3.250552191023e+02 
       1.537452705885e-01       2.954819489024e+02 
       1.588867554523e-01       2.662033485192e+02 
       1.642003831820e-01       2.416955157016e+02 
       1.696921811363e-01       2.243280297436e+02 
       1.753685643608e-01       2.135811392953e+02 
       1.812364112166e-01       2.061654824976e+02 
       1.873031508376e-01       1.978677219414e+02 
       1.935768643545e-01       1.860380301555e+02 
       2.000664023533e-01       1.709086377869e+02 
       2.067815217488e-01       1.553505439323e+02 
       2.137330461872e-01       1.425388847861e+02 
       2.209330553363e-01       1.334180667884e+02 
       2.283951100711e-01       1.266446525500e+02 
       2.361345227804e-01       1.197928125064e+02 
       2.441686850210e-01       1.113759621790e+02 
       2.525174688633e-01       1.021723313832e+02 
       2.612037239871e-01       9.389414430430e+01 
       2.702539006397e-01       8.743753561476e+01 
       2.796988400975e-01       8.192341929488e+01 
       2.895747910506e-01       7.619373368104e+01 
       2.999247352101e-01       7.008323831877e+01 
       3.108001430759e-01       6.439601315845e+01 
       3.222633390039e-01       5.953162469364e+01 
       3.343907469090e-01       5.504648624153e+01 
       3.472774379899e-01       5.045492256774e+01 
       3.610436534445e-01       4.606415705943e+01 
       3.758444114134e-01       4.212852508094e+01 
       3.918840930785e-01       3.830325948058e+01 
       4.094393798358e-01       3.458072200626e+01 
       4.288968287070e-01       3.109164155095e+01 
       4.508174550095e-01       2.767980806007e+01 
       4.760541975663e-01       2.437422788815e+01 
       5.059802618551e-01       2.111324232223e+01 
       5.429681163691e-01       1.786488790284e+01 
       5.914761576256e-01       1.456276362331e+01 
       6.606205961071e-01       1.115443935082e+01 
       7.691954606802e-01       7.691784409015e+00 
       9.432330213441e-01       4.635199184612e+00 
       1.184827388156e+00       2.603658450965e+00 
       1.491552308418e+00       1.439202033095e+00 
       1.877752857444e+00       7.878851340423e-01 
       2.363950789150e+00       4.277405654966e-01 
       2.976037720692e+00       2.305892648606e-01 
       3.746609513037e+00       1.236007090750e-01 
       4.716701924032e+00       6.596000220434e-02 
       5.937975912022e+00       3.508433830371e-02 
       7.475468770266e+00       1.861681530083e-02 
       9.411057599962e+00       9.861193802086e-03 
       1.184781956445e+01       5.215799202298e-03 
