# Matter power spectrum P(k) at redshift z=2.5
# for k=7.46735e-06 to 11.8478 h/Mpc,
# number of wavenumbers equal to 124
#    1:k (h/Mpc)              2:P (Mpc/h)^3        
       7.467351644259e-06       2.633069285016e+01 
       9.400838743760e-06       3.283759876846e+01 
       1.183495478670e-05       4.095245564199e+01 
       1.489932532841e-05       5.107256305194e+01 
       1.875713927452e-05       6.369334297018e+01 
       2.361383928526e-05       7.943251125255e+01 
       2.972806234624e-05       9.906019436795e+01 
       3.742541313108e-05       1.235363420383e+02 
       4.711580363761e-05       1.540571511406e+02 
       5.931528249650e-05       1.921124985841e+02 
       7.467351644259e-05       2.395566581261e+02 
       9.400838743760e-05       2.986946533680e+02 
       1.183495478670e-04       3.723864793272e+02 
       1.489932532841e-04       4.641702370004e+02 
       1.875713927452e-04       5.784027384317e+02 
       2.361383928526e-04       7.204105659593e+02 
       2.972806234624e-04       8.966345412698e+02 
       3.742541313108e-04       1.114734571654e+03 
       4.711580363761e-04       1.383601988442e+03 
       5.931528249650e-04       1.713213401059e+03 
       7.467351644259e-04       2.114271305663e+03 
       9.400838743760e-04       2.597593365846e+03 
       1.183495478670e-03       3.173041300857e+03 
       1.489932532841e-03       3.847661879016e+03 
       1.875713927452e-03       4.622490694080e+03 
       2.361383928526e-03       5.489069108669e+03 
       2.972806234624e-03       6.425329866787e+03 
       3.742541313108e-03       7.390689308803e+03 
       4.711580363761e-03       8.322044085020e+03 
       5.931528249650e-03       9.130700602717e+03 
       7.467351644259e-03       9.700104798524e+03 
       9.400838743760e-03       9.891744464459e+03 
       1.183495478669e-02       9.560472289510e+03 
       1.489932526526e-02       8.604196914338e+03 
       1.875708281903e-02       7.062777676042e+03 
       2.360493228521e-02       5.238457624597e+03 
       2.939498292394e-02       3.720595954390e+03 
       3.445248433672e-02       2.996614698985e+03 
       3.809324589809e-02       2.720592439039e+03 
       4.106704240359e-02       2.585364112927e+03 
       4.370886202657e-02       2.498627810592e+03 
       4.616563250685e-02       2.424442525727e+03 
       4.851411754439e-02       2.345384333879e+03 
       5.079992024581e-02       2.252729466227e+03 
       5.305278788534e-02       2.142972098706e+03 
       5.529357019165e-02       2.016383352752e+03 
       5.753775216640e-02       1.876080347803e+03 
       5.979740480724e-02       1.727198281466e+03 
       6.208233521245e-02       1.576056761250e+03 
       6.440080113832e-02       1.429288028459e+03 
       6.675997429481e-02       1.293036239106e+03 
       6.916625146435e-02       1.172301108780e+03 
       7.162546958184e-02       1.070455055077e+03 
       7.414305801789e-02       9.891762682092e+02 
       7.672414850959e-02       9.283189322232e+02 
       7.937365573673e-02       8.861286625130e+02 
       8.209633705705e-02       8.593185857839e+02 
       8.489683713388e-02       8.432439878136e+02 
       8.777972142321e-02       8.321669856491e+02 
       9.074950134361e-02       8.197990735514e+02 
       9.381065319963e-02       8.002447467949e+02 
       9.696763243076e-02       7.692202451073e+02 
       1.002248844252e-01       7.251986632142e+02 
       1.035868529168e-01       6.700084150203e+02 
       1.070579868379e-01       6.084143439177e+02 
       1.106427464056e-01       5.468572577253e+02 
       1.143456091606e-01       4.916946781404e+02 
       1.181710766365e-01       4.475554350581e+02 
       1.221236823175e-01       4.164413982152e+02 
       1.262080015246e-01       3.974219115254e+02 
       1.304286638634e-01       3.869690367112e+02 
       1.347903688561e-01       3.799377546331e+02 
       1.392979053805e-01       3.702374238082e+02 
       1.439561755391e-01       3.533128428467e+02 
       1.487702235891e-01       3.283599237032e+02 
       1.537452705885e-01       2.985475133395e+02 
       1.588867554523e-01       2.690108136304e+02 
       1.642003831820e-01       2.443028733981e+02 
       1.696921811363e-01       2.268353840761e+02 
       1.753685643608e-01       2.160875769935e+02 
       1.812364112166e-01       2.087232635141e+02 
       1.873031508376e-01       2.004545101630e+02 
       1.935768643545e-01       1.885725509652e+02 
       2.000664023533e-01       1.733066468356e+02 
       2.067815217488e-01       1.575860941792e+02 
       2.137330461872e-01       1.446541464434e+02 
       2.209330553363e-01       1.354783481576e+02 
       2.283951100711e-01       1.286915512117e+02 
       2.361345227804e-01       1.218160974205e+02 
       2.441686850210e-01       1.133281220476e+02 
       2.525174688633e-01       1.040222529364e+02 
       2.612037239871e-01       9.565307412510e+01 
       2.702539006397e-01       8.914098849469e+01 
       2.796988400975e-01       8.358709854598e+01 
       2.895747910506e-01       7.780364372067e+01 
       2.999247352101e-01       7.162011667001e+01 
       3.108001430759e-01       6.586289010347e+01 
       3.222633390039e-01       6.094391928637e+01 
       3.343907469090e-01       5.640803803342e+01 
       3.472774379899e-01       5.175541504750e+01 
       3.610436534445e-01       4.730267092796e+01 
       3.758444114134e-01       4.331273047147e+01 
       3.918840930785e-01       3.943048304700e+01 
       4.094393798358e-01       3.564826476018e+01 
       4.288968287070e-01       3.210158031744e+01 
       4.508174550095e-01       2.862923644428e+01 
       4.760541975663e-01       2.526148851272e+01 
       5.059802618551e-01       2.193459324044e+01 
       5.429681163691e-01       1.861529136127e+01 
       5.914761576256e-01       1.523392791719e+01 
       6.606205961071e-01       1.173363022552e+01 
       7.691954606802e-01       8.161668033085e+00 
       9.432330213441e-01       4.985787466283e+00 
       1.184827388156e+00       2.851593831802e+00 
       1.491552308418e+00       1.610013402204e+00 
       1.877752857444e+00       9.026727008798e-01 
       2.363950789150e+00       5.029274234322e-01 
       2.976037720692e+00       2.786008696574e-01 
       3.746609513037e+00       1.535212399908e-01 
       4.716701924032e+00       8.418743885307e-02 
       5.937975912022e+00       4.596070519131e-02 
       7.475468770266e+00       2.498753474252e-02 
       9.411057599962e+00       1.353255877219e-02 
       1.184781956445e+01       7.302131613039e-03 
