# Matter power spectrum P(k) at redshift z=1
# for k=8.65832e-06 to 10.914 h/Mpc,
# number of wavenumbers equal to 123
#    1:k (h/Mpc)              2:P (Mpc/h)^3        
       8.658317403443e-06       2.737441633743e+01 
       1.090017580257e-05       3.429048847605e+01 
       1.372250831088e-05       4.295386355104e+01 
       1.727561442613e-05       5.380586663179e+01 
       2.174871000541e-05       6.739936010610e+01 
       2.738000369955e-05       8.442667143356e+01 
       3.446938243239e-05       1.057547715873e+02 
       4.339438147298e-05       1.324691052001e+02 
       5.463028956543e-05       1.659282261329e+02 
       6.877545978759e-05       2.078316796280e+02 
       8.658317403443e-05       2.603039649226e+02 
       1.090017580257e-04       3.259975779193e+02 
       1.372250831088e-04       4.082179647149e+02 
       1.727561442613e-04       5.110720548411e+02 
       2.174871000541e-04       6.396392463945e+02 
       2.738000369955e-04       8.001578087681e+02 
       3.446938243239e-04       1.000209477309e+03 
       4.339438147298e-04       1.248870357020e+03 
       5.463028956543e-04       1.556781377652e+03 
       6.877545978759e-04       1.936085032749e+03 
       8.658317403443e-04       2.400169189594e+03 
       1.090017580257e-03       2.963076095121e+03 
       1.372250831088e-03       3.638195525557e+03 
       1.727561442613e-03       4.435927376549e+03 
       2.174871000541e-03       5.360437653915e+03 
       2.738000369955e-03       6.405270390298e+03 
       3.446938243239e-03       7.548347828399e+03 
       4.339438147298e-03       8.745944882000e+03 
       5.463028956543e-03       9.927092145525e+03 
       6.877545978759e-03       1.099038605222e+04 
       8.658317403443e-03       1.179941651548e+04 
       1.090017580257e-02       1.218892139889e+04 
       1.372250831088e-02       1.197954523928e+04 
       1.727561440320e-02       1.102797276864e+04 
       2.174868253922e-02       9.334204404035e+03 
       2.737450221922e-02       7.187848477226e+03 
       3.421628891852e-02       5.239095801336e+03 
       4.058291203044e-02       4.191234498075e+03 
       4.513810457297e-02       3.779822461551e+03 
       4.879305027008e-02       3.572938881865e+03 
       5.200953301981e-02       3.436671024109e+03 
       5.498467429341e-02       3.321107636181e+03 
       5.781908998337e-02       3.202950292128e+03 
       6.057156909915e-02       3.070750599435e+03 
       6.327998872009e-02       2.919820674739e+03 
       6.597063970475e-02       2.750293247046e+03 
       6.866289284275e-02       2.565741458375e+03 
       7.137174658302e-02       2.372150251700e+03 
       7.410931584928e-02       2.177006681587e+03 
       7.688575044060e-02       1.987922104204e+03 
       7.970982701254e-02       1.812356827179e+03 
       8.258934469302e-02       1.656059079307e+03 
       8.553139748435e-02       1.523132371194e+03 
       8.854256650088e-02       1.415525719975e+03 
       9.162905837772e-02       1.333054986253e+03 
       9.479680651477e-02       1.273440680775e+03 
       9.805154602429e-02       1.232537887904e+03 
       1.013988696713e-01       1.204411339188e+03 
       1.048442698301e-01       1.182076510152e+03 
       1.083931700161e-01       1.157829294637e+03 
       1.120509485916e-01       1.124847786840e+03 
       1.158229566077e-01       1.078160923978e+03 
       1.197145313185e-01       1.016346165008e+03 
       1.237310066255e-01       9.417892308479e+02 
       1.278777215188e-01       8.603846595147e+02 
       1.321600274652e-01       7.798271485720e+02 
       1.365832956122e-01       7.076457783261e+02 
       1.411529246297e-01       6.492130151275e+02 
       1.458743499816e-01       6.067952764359e+02 
       1.507530553980e-01       5.790653401469e+02 
       1.557945873088e-01       5.614316314054e+02 
       1.610045729880e-01       5.473998896545e+02 
       1.663887431568e-01       5.301177327492e+02 
       1.719529597912e-01       5.043545961009e+02 
       1.777032498903e-01       4.693670183333e+02 
       1.836458459857e-01       4.291444655365e+02 
       1.897872342170e-01       3.899726920390e+02 
       1.961342108736e-01       3.570949613546e+02 
       2.026939484227e-01       3.329057997028e+02 
       2.094740722148e-01       3.165563813967e+02 
       2.164827493083e-01       3.041358944577e+02 
       2.237287911912e-01       2.905777423728e+02 
       2.312217726431e-01       2.729431925371e+02 
       2.389721695932e-01       2.518496663520e+02 
       2.469915196469e-01       2.305995719122e+02 
       2.552926100338e-01       2.128282213479e+02 
       2.638896991547e-01       1.995730865972e+02 
       2.727987798086e-01       1.889593017094e+02 
       2.820378947194e-01       1.782854902264e+02 
       2.916275184298e-01       1.659677013511e+02 
       3.015910243320e-01       1.529885633373e+02 
       3.119552621376e-01       1.413230461030e+02 
       3.227512802578e-01       1.317982753832e+02 
       3.340152406707e-01       1.234008662098e+02 
       3.457895928684e-01       1.147890459779e+02 
       3.581246015984e-01       1.059626664633e+02 
       3.710803655221e-01       9.776130564999e+01 
       3.847295292619e-01       9.051177094711e+01 
       3.991609944527e-01       8.375913486454e+01 
       4.144851025507e-01       7.700013814293e+01 
       4.308410410961e-01       7.054607283302e+01 
       4.484077062775e-01       6.466163887679e+01 
       4.674201160107e-01       5.896305166183e+01 
       4.881950760740e-01       5.344588200464e+01 
       5.111729519429e-01       4.821956324590e+01 
       5.369889135787e-01       4.312519771659e+01 
       5.666013467127e-01       3.817668769502e+01 
       6.015388388028e-01       3.329644879488e+01 
       6.444121669801e-01       2.842380607147e+01 
       7.000630475013e-01       2.346522080455e+01 
       7.782826003433e-01       1.832908619617e+01 
       8.994882172127e-01       1.303105288578e+01 
       1.095384779146e+00       8.142568416178e+00 
       1.374092390061e+00       4.703656933169e+00 
       1.729745987277e+00       2.673264341839e+00 
       2.177620429971e+00       1.508299475454e+00 
       2.741461695887e+00       8.455353419013e-01 
       3.451295794412e+00       4.711884842533e-01 
       4.344923979203e+00       2.611663231624e-01 
       5.469935209733e+00       1.440419119156e-01 
       6.886240436401e+00       7.907609450395e-02 
       8.669263077109e+00       4.322925216868e-02 
       1.091395558930e+01       2.353934187339e-02 
