# Matter power spectrum P(k) at redshift z=0.5
# for k=1.13317e-05 to 11.3447 h/Mpc,
# number of wavenumbers equal to 122
#    1:k (h/Mpc)              2:P (Mpc/h)^3        
       1.133165464208e-05       3.045538781345e+01 
       1.426570798660e-05       3.782976915195e+01 
       1.795946230156e-05       4.698972610523e+01 
       2.260962347359e-05       5.836758262357e+01 
       2.846382954200e-05       7.250029640539e+01 
       3.583383832741e-05       9.005478671607e+01 
       4.511212967250e-05       1.118592822163e+02 
       5.679280642486e-05       1.389422939579e+02 
       7.149790721536e-05       1.725808022596e+02 
       9.001053228352e-05       2.143598826675e+02 
       1.133165464208e-04       2.662462433194e+02 
       1.426570798660e-04       3.306785427090e+02 
       1.795946230156e-04       4.106776261860e+02 
       2.260962347359e-04       5.099797004667e+02 
       2.846382954200e-04       6.331947096448e+02 
       3.583383832741e-04       7.859901912976e+02 
       4.511212967250e-04       9.752970508612e+02 
       5.679280642486e-04       1.209527880238e+03 
       7.149790721536e-04       1.498791386050e+03 
       9.001053228352e-04       1.855078654413e+03 
       1.133165464208e-03       2.292377727706e+03 
       1.426570798660e-03       2.826609219283e+03 
       1.795946230156e-03       3.475034292700e+03 
       2.260962347359e-03       4.255549994360e+03 
       2.846382954200e-03       5.184545669765e+03 
       3.583383832741e-03       6.273948491473e+03 
       4.511212967250e-03       7.526781833914e+03 
       5.679280642486e-03       8.893537145477e+03 
       7.149790721536e-03       1.039491704494e+04 
       9.001053228352e-03       1.193501826961e+04 
       1.133165464208e-02       1.339637914916e+04 
       1.426570798660e-02       1.460830952213e+04 
       1.795946230126e-02       1.535120442443e+04 
       2.260962241942e-02       1.539363692744e+04 
       2.846332087368e-02       1.459424776669e+04 
       3.578527773698e-02       1.307740421830e+04 
       4.396897826138e-02       1.146978338387e+04 
       5.028612931321e-02       1.050950960765e+04 
       5.500859753311e-02       9.946211728982e+03 
       5.899993157405e-02       9.542836630578e+03 
       6.261058771346e-02       9.211502643317e+03 
       6.600414837021e-02       8.911732098000e+03 
       6.927025249543e-02       8.621452431522e+03 
       7.246400485734e-02       8.329228312322e+03 
       7.562229141337e-02       8.028658572765e+03 
       7.877150210344e-02       7.717717443843e+03 
       8.193157283432e-02       7.397764534821e+03 
       8.511827051694e-02       7.072954180597e+03 
       8.834456569958e-02       6.748697100101e+03 
       9.162149839384e-02       6.431637145844e+03 
       9.495874647066e-02       6.128648152370e+03 
       9.836501130017e-02       5.846062257073e+03 
       1.018482866204e-01       5.588806993061e+03 
       1.054160502274e-01       5.360186933110e+03 
       1.090754031187e-01       5.160623148887e+03 
       1.128331719111e-01       4.988255890914e+03 
       1.166959849929e-01       4.838588215504e+03 
       1.206703295194e-01       4.704841218135e+03 
       1.247625942153e-01       4.578707927023e+03 
       1.289791015509e-01       4.451213452343e+03 
       1.333261319377e-01       4.314557052725e+03 
       1.378099419754e-01       4.163320184979e+03 
       1.424367783751e-01       3.996233853181e+03 
       1.472128889120e-01       3.816214447771e+03 
       1.521445315833e-01       3.630637835814e+03 
       1.572379830323e-01       3.448961643995e+03 
       1.624995472273e-01       3.280766426644e+03 
       1.679355653381e-01       3.133392969191e+03 
       1.735524277241e-01       3.009621742022e+03 
       1.793565889311e-01       2.907071919804e+03 
       1.853545865796e-01       2.818514223565e+03 
       1.915530650227e-01       2.734428576024e+03 
       1.979588046439e-01       2.645177749665e+03 
       2.045787576758e-01       2.544034530910e+03 
       2.114200914345e-01       2.431501486750e+03 
       2.184902399056e-01       2.314698527394e+03 
       2.257969646844e-01       2.203288405917e+03 
       2.333484263855e-01       2.104865636836e+03 
       2.411532678045e-01       2.021968474396e+03 
       2.492207103538e-01       1.951781838037e+03 
       2.575606656382e-01       1.886703628971e+03 
       2.661838644923e-01       1.818921986365e+03 
       2.751020064298e-01       1.745156841084e+03 
       2.843279332748e-01       1.667963002904e+03 
       2.938758318429e-01       1.593695655175e+03 
       3.037614719844e-01       1.527890924305e+03 
       3.140024882180e-01       1.470670751730e+03 
       3.246187157426e-01       1.417585880307e+03 
       3.356325950573e-01       1.363865291468e+03 
       3.470696640984e-01       1.308044351279e+03 
       3.589591632485e-01       1.253121879917e+03 
       3.713347875608e-01       1.202362154299e+03 
       3.842356332757e-01       1.156164829055e+03 
       3.977074040294e-01       1.111782138008e+03 
       4.118039689867e-01       1.067217300710e+03 
       4.265894051740e-01       1.023281022123e+03 
       4.421407172939e-01       9.816725515755e+02 
       4.585515233778e-01       9.421652198286e+02 
       4.759371465509e-01       9.034645876103e+02 
       4.944418027953e-01       8.651776360610e+02 
       5.142489976494e-01       8.280284785193e+02 
       5.355969873013e-01       7.918467980225e+02 
       5.588025151652e-01       7.558310088855e+02 
       5.842986233215e-01       7.200878218776e+02 
       6.126975379092e-01       6.843169790213e+02 
       6.449006945509e-01       6.479464956363e+02 
       6.823031000826e-01       6.105119143307e+02 
       7.272004018436e-01       5.710625784599e+02 
       7.836658507799e-01       5.282482098047e+02 
       8.595840611282e-01       4.797787057957e+02 
       9.713882139278e-01       4.219928614572e+02 
       1.151098628266e+00       3.511229337763e+02 
       1.429189835169e+00       2.727337569661e+02 
       1.798020193890e+00       2.016404745029e+02 
       2.263557451955e+00       1.427198737429e+02 
       2.849649959660e+00       9.684999439883e+01 
       3.587496748922e+00       6.341589853007e+01 
       4.516390821947e+00       4.037476762545e+01 
       5.685799175344e+00       2.516697993739e+01 
       7.157997068198e+00       1.544527867215e+01 
       9.011384406703e+00       9.372823061120e+00 
       1.134466082504e+01       5.642023325095e+00 
