# Matter power spectrum P(k) at redshift z=1.5
# for k=1.20319e-05 to 12.0471 h/Mpc,
# number of wavenumbers equal to 122
#    1:k (h/Mpc)              2:P (Mpc/h)^3        
       1.203190944328e-05       5.047231503405e+00 
       1.514727655056e-05       6.309318899622e+00 
       1.906929136897e-05       7.886991879996e+00 
       2.400681548930e-05       9.859155345238e+00 
       3.022279007573e-05       1.232443331983e+01 
       3.804823844166e-05       1.540609900763e+01 
       4.789989424821e-05       1.925820405852e+01 
       6.030239409133e-05       2.407326100386e+01 
       7.591621631360e-05       3.009176829501e+01 
       9.557285388445e-05       3.761408023945e+01 
       1.203190944328e-04       4.701509159771e+01 
       1.514727655056e-04       5.876232776234e+01 
       1.906929136897e-04       7.343803191722e+01 
       2.400681548930e-04       9.176574927240e+01 
       3.022279007573e-04       1.146416020110e+02 
       3.804823844166e-04       1.431697083964e+02 
       4.789989424821e-04       1.786998130515e+02 
       6.030239409133e-04       2.228627722302e+02 
       7.591621631360e-04       2.775966876114e+02 
       9.557285388445e-04       3.451536413945e+02 
       1.203190944328e-03       4.280765696704e+02 
       1.514727655056e-03       5.291320104894e+02 
       1.906929136897e-03       6.511577055962e+02 
       2.400681548930e-03       7.967406962492e+02 
       3.022279007573e-03       9.676907462718e+02 
       3.804823844166e-03       1.164339093705e+03 
       4.789989424821e-03       1.384626929348e+03 
       6.030239409133e-03       1.623006334984e+03 
       7.591621631360e-03       1.867947230101e+03 
       9.557285388445e-03       2.105850853280e+03 
       1.203190944328e-02       2.313694911013e+03 
       1.514727655056e-02       2.463724312179e+03 
       1.906929136896e-02       2.524356530535e+03 
       2.400681545741e-02       2.466596040386e+03 
       3.022275187937e-02       2.277357151361e+03 
       3.804058925683e-02       1.979814051038e+03 
       4.754805741898e-02       1.653491668235e+03 
       5.639476345096e-02       1.428850105903e+03 
       6.272441109171e-02       1.309125635585e+03 
       6.780320371588e-02       1.229254607836e+03 
       7.227275946278e-02       1.165763260693e+03 
       7.640697154648e-02       1.109707208255e+03 
       8.034564493268e-02       1.057092455937e+03 
       8.417046763369e-02       1.005944877245e+03 
       8.793407084690e-02       9.555044942073e+02 
       9.167298671329e-02       9.056456055724e+02 
       9.541413185880e-02       8.566785559019e+02 
       9.917834745474e-02       8.091514095669e+02 
       1.029824679379e-01       7.637165961034e+02 
       1.068405971426e-01       7.210303330019e+02 
       1.107649308719e-01       6.816220562569e+02 
       1.147663066172e-01       6.458651389695e+02 
       1.188545820698e-01       6.138876802326e+02 
       1.230389022423e-01       5.855489100520e+02 
       1.273278917927e-01       5.604500139602e+02 
       1.317297957080e-01       5.379529383038e+02 
       1.362525834464e-01       5.172513497865e+02 
       1.409040266696e-01       4.974569851715e+02 
       1.456917575431e-01       4.777376053648e+02 
       1.506233125509e-01       4.574247342569e+02 
       1.557061654362e-01       4.361723063658e+02 
       1.609477519932e-01       4.139646333684e+02 
       1.663554888461e-01       3.912028942505e+02 
       1.719367879617e-01       3.685632392219e+02 
       1.776990683796e-01       3.468481076208e+02 
       1.836497664778e-01       3.267881947134e+02 
       1.897963459841e-01       3.088658656405e+02 
       1.961463088725e-01       2.931514891100e+02 
       2.027072082480e-01       2.793496161923e+02 
       2.094866642880e-01       2.668332557897e+02 
       2.164923843000e-01       2.548410079834e+02 
       2.237321879359e-01       2.427373114486e+02 
       2.312140386018e-01       2.301998117411e+02 
       2.389460820999e-01       2.172866404846e+02 
       2.469366935545e-01       2.045116270096e+02 
       2.551945337045e-01       1.924490014967e+02 
       2.637286157106e-01       1.815239401863e+02 
       2.725483837271e-01       1.718417672437e+02 
       2.816638046551e-01       1.630880844236e+02 
       2.910854747357e-01       1.547861181908e+02 
       3.008247429806e-01       1.466360986203e+02 
       3.108938539181e-01       1.385679793714e+02 
       3.213061127650e-01       1.306575200225e+02 
       3.320760769978e-01       1.231431309828e+02 
       3.432197794238e-01       1.162484329773e+02 
       3.547549893580e-01       1.099282517685e+02 
       3.667015204909e-01       1.040015457972e+02 
       3.790815966746e-01       9.830412008650e+01 
       3.919202903891e-01       9.275795632476e+01 
       4.052460534319e-01       8.747396711067e+01 
       4.190913659199e-01       8.252693694114e+01 
       4.334935387600e-01       7.790095952174e+01 
       4.484957174952e-01       7.353185040115e+01 
       4.641481536383e-01       6.932874545028e+01 
       4.805098360365e-01       6.532030929123e+01 
       4.976506138863e-01       6.152896135532e+01 
       5.156540019529e-01       5.794603782151e+01 
       5.346209493631e-01       5.451367875184e+01 
       5.546749966754e-01       5.123539228052e+01 
       5.759694781995e-01       4.810868468397e+01 
       5.986978141837e-01       4.510925717312e+01 
       6.231086061377e-01       4.222833627345e+01 
       6.495284456023e-01       3.944783135209e+01 
       6.783975817805e-01       3.675548324147e+01 
       7.103279712004e-01       3.412879258326e+01 
       7.462022861066e-01       3.154810150822e+01 
       7.873523680757e-01       2.898640200633e+01 
       8.359024682835e-01       2.640951052248e+01 
       8.954807722336e-01       2.376643883803e+01 
       9.728158657668e-01       2.098657621600e+01 
       1.081514706769e+00       1.796982777706e+01 
       1.249951650291e+00       1.463514885816e+01 
       1.522183729355e+00       1.119198449353e+01 
       1.909487855672e+00       8.319643488821e+00 
       2.403716902074e+00       6.197745049793e+00 
       3.026099250259e+00       4.613155368743e+00 
       3.809633243866e+00       3.405624869318e+00 
       4.796044100319e+00       2.476904502275e+00 
       6.037861793977e+00       1.764947602170e+00 
       7.601217645339e+00       1.227135357320e+00 
       9.569366054295e+00       8.303581120929e-01 
       1.204711810051e+01       5.462001789395e-01 
