# Matter power spectrum P(k) at redshift z=2.5
# for k=9.49995e-06 to 11.9745 h/Mpc,
# number of wavenumbers equal to 123
#    1:k (h/Mpc)              2:P (Mpc/h)^3        
       9.499951586342e-06       1.124694870887e+01 
       1.195973046286e-05       1.402245224932e+01 
       1.505640859790e-05       1.748287258799e+01 
       1.895489539426e-05       2.179721171903e+01 
       2.386279948973e-05       2.717615439176e+01 
       3.004148467417e-05       3.388233497793e+01 
       3.781998846434e-05       4.224311436454e+01 
       4.761254455152e-05       5.266646818034e+01 
       5.994064225609e-05       6.566071609242e+01 
       7.546079773545e-05       8.185895048103e+01 
       9.499951586342e-05       1.020491885684e+02 
       1.195973046286e-04       1.272113234420e+02 
       1.505640859790e-04       1.585619885777e+02 
       1.895489539426e-04       1.976081181996e+02 
       2.386279948973e-04       2.462091921297e+02 
       3.004148467417e-04       3.066462998109e+02 
       3.781998846434e-04       3.816926125179e+02 
       4.761254455152e-04       4.746739228980e+02 
       5.994064225609e-04       5.894997686648e+02 
       7.546079773545e-04       7.306383464624e+02 
       9.499951586342e-04       9.030086414728e+02 
       1.195973046286e-03       1.111770158643e+03 
       1.505640859790e-03       1.361951044686e+03 
       1.895489539426e-03       1.657754700688e+03 
       2.386279948973e-03       2.001347009517e+03 
       3.004148467417e-03       2.391295816728e+03 
       3.781998846434e-03       2.820765513965e+03 
       4.761254455152e-03       3.275241760324e+03 
       5.994064225609e-03       3.729396139365e+03 
       7.546079773545e-03       4.148676313887e+03 
       9.499951586342e-03       4.482707233259e+03 
       1.195973046286e-02       4.670033574959e+03 
       1.505640859790e-02       4.641722538234e+03 
       1.895489536398e-02       4.338996212337e+03 
       2.386276486590e-02       3.751451377343e+03 
       3.003480757068e-02       2.972888703281e+03 
       3.752263796307e-02       2.238667798907e+03 
       4.442172989835e-02       1.827929156045e+03 
       4.935929969552e-02       1.656617042797e+03 
       5.333255437255e-02       1.565366771972e+03 
       5.683453236489e-02       1.503197471382e+03 
       6.007656772500e-02       1.450654834613e+03 
       6.316693404425e-02       1.398498840856e+03 
       6.616906289120e-02       1.342022845509e+03 
       6.912390317146e-02       1.279148217757e+03 
       7.205992190930e-02       1.209620014880e+03 
       7.499811984448e-02       1.134534418733e+03 
       7.795477486297e-02       1.055966527555e+03 
       8.094304743882e-02       9.766007076061e+02 
       8.397397210418e-02       8.993549781205e+02 
       8.705709712402e-02       8.270267259446e+02 
       9.020091231383e-02       7.619726602151e+02 
       9.341314380114e-02       7.058913003551e+02 
       9.670096215103e-02       6.596870839259e+02 
       1.000711322766e-01       6.234136249304e+02 
       1.035301231318e-01       5.963095580719e+02 
       1.070841889327e-01       5.768149296414e+02 
       1.107394297895e-01       5.626797167805e+02 
       1.145018371851e-01       5.511236935994e+02 
       1.183773281553e-01       5.391070748484e+02 
       1.223717709854e-01       5.237936081251e+02 
       1.264910045510e-01       5.031256904227e+02 
       1.307408529731e-01       4.763468142368e+02 
       1.351271369508e-01       4.443097345579e+02 
       1.396556829350e-01       4.092962300135e+02 
       1.443323311751e-01       3.744250121569e+02 
       1.491629435864e-01       3.428286653763e+02 
       1.541534123350e-01       3.168551633744e+02 
       1.593096700015e-01       2.975376741403e+02 
       1.646377021672e-01       2.844490296748e+02 
       1.701435632497e-01       2.757789766075e+02 
       1.758333964091e-01       2.687944306757e+02 
       1.817134583368e-01       2.606063615134e+02 
       1.877901497444e-01       2.488407083684e+02 
       1.940700523762e-01       2.330523376054e+02 
       2.005599733990e-01       2.148689225968e+02 
       2.072669980698e-01       1.970310759216e+02 
       2.141985516674e-01       1.818738994479e+02 
       2.213624718035e-01       1.705351110477e+02 
       2.287670924196e-01       1.627118245375e+02 
       2.364213410496e-01       1.567218247999e+02 
       2.443348512991e-01       1.502863872656e+02 
       2.525180930019e-01       1.420095568405e+02 
       2.609825231902e-01       1.320961605204e+02 
       2.697407619080e-01       1.220346859102e+02 
       2.788067980870e-01       1.135296813826e+02 
       2.881962322700e-01       1.071224501326e+02 
       2.979265650526e-01       1.019748295924e+02 
       3.080175429130e-01       9.681304741518e+01 
       3.184915768782e-01       9.085017673254e+01 
       3.293742546564e-01       8.452238166602e+01 
       3.406949740393e-01       7.878877264111e+01 
       3.524877354756e-01       7.408111472498e+01 
       3.647921461337e-01       6.992659038740e+01 
       3.776547087142e-01       6.565080551009e+01 
       3.911304992496e-01       6.123139226650e+01 
       4.052853848678e-01       5.709905309884e+01 
       4.201990045548e-01       5.343161871486e+01 
       4.359688497573e-01       4.999768367410e+01 
       4.527159661962e-01       4.653559892065e+01 
       4.705931064609e-01       4.320610547659e+01 
       4.897966950057e-01       4.015068186800e+01 
       5.105849205381e-01       3.716887171377e+01 
       5.333060527884e-01       3.425630411469e+01 
       5.584445750809e-01       3.147417908284e+01 
       5.866999606786e-01       2.873345614656e+01 
       6.191288590751e-01       2.603925522397e+01 
       6.574190280840e-01       2.334635238358e+01 
       7.044582332637e-01       2.061391781962e+01 
       7.656129443353e-01       1.777430669342e+01 
       8.517550614727e-01       1.474838669747e+01 
       9.855253143579e-01       1.149861727688e+01 
       1.201518687332e+00       8.307478581551e+00 
       1.507605449748e+00       5.835224432274e+00 
       1.897831034270e+00       4.156237643572e+00 
       2.389227007389e+00       3.004086704738e+00 
       3.007858593565e+00       2.189325870707e+00 
       3.786669618523e+00       1.596483444155e+00 
       4.767134608827e+00       1.155768076931e+00 
       6.001466900496e+00       8.247603700062e-01 
       7.555399189076e+00       5.768181942729e-01 
       9.511684035376e+00       3.938624754750e-01 
       1.197450074109e+01       2.621617767050e-01 
