# Matter power spectrum P(k) at redshift z=1.5
# for k=1.14815e-05 to 11.4968 h/Mpc,
# number of wavenumbers equal to 122
#    1:k (h/Mpc)              2:P (Mpc/h)^3        
       1.148148070371e-05       1.165900210057e+01 
       1.445432782293e-05       1.447608064537e+01 
       1.819692060669e-05       1.797381963534e+01 
       2.290856576816e-05       2.231667164990e+01 
       2.884017559330e-05       2.770881012423e+01 
       3.630762993501e-05       3.440372400712e+01 
       4.570859796720e-05       4.271610087465e+01 
       5.754371551839e-05       5.303657743601e+01 
       7.244324575516e-05       6.585000402817e+01 
       9.120064299402e-05       8.175803907503e+01 
       1.148148070371e-04       1.015070430938e+02 
       1.445432782293e-04       1.260223979127e+02 
       1.819692060669e-04       1.564505033159e+02 
       2.290856576816e-04       1.942097397653e+02 
       2.884017559330e-04       2.410514912408e+02 
       3.630762993501e-04       2.991316939816e+02 
       4.570859796720e-04       3.710920051497e+02 
       5.754371551839e-04       4.601472491304e+02 
       7.244324575516e-04       5.701723328302e+02 
       9.120064299402e-04       7.057780944418e+02 
       1.148148070371e-03       8.723622079609e+02 
       1.445432782293e-03       1.076111798779e+03 
       1.819692060669e-03       1.323867885386e+03 
       2.290856576816e-03       1.622834037373e+03 
       2.884017559330e-03       1.979925233668e+03 
       3.630762993501e-03       2.400680316918e+03 
       4.570859796720e-03       2.887660439752e+03 
       5.754371551839e-03       3.429455216297e+03 
       7.244324575516e-03       4.027894547680e+03 
       9.120064299402e-03       4.653010783058e+03 
       1.148148070371e-02       5.263341074824e+03 
       1.445432782293e-02       5.796881372718e+03 
       1.819692060545e-02       6.171601474862e+03 
       2.290856267196e-02       6.298266571068e+03 
       2.883904576598e-02       6.116649403460e+03 
       3.622182709734e-02       5.659050750366e+03 
       4.409775430449e-02       5.146815026066e+03 
       4.993416491243e-02       4.821681135751e+03 
       5.439637224343e-02       4.606446161295e+03 
       5.822053076076e-02       4.438056488761e+03 
       6.170607283333e-02       4.291500056810e+03 
       6.499685720225e-02       4.154869963888e+03 
       6.817338361574e-02       4.021792113475e+03 
       7.128589591748e-02       3.888800141416e+03 
       7.436841967476e-02       3.754263582452e+03 
       7.744552714917e-02       3.617807427003e+03 
       8.053592652820e-02       3.480070720659e+03 
       8.365451267188e-02       3.342378128705e+03 
       8.681360949584e-02       3.206480674855e+03 
       9.002375906049e-02       3.074400684506e+03 
       9.329424253870e-02       2.948074627615e+03 
       9.663343533946e-02       2.829271370780e+03 
       1.000490556600e-01       2.719170246041e+03 
       1.035483422493e-01       2.618371746966e+03 
       1.071381837625e-01       2.526659777834e+03 
       1.108252141511e-01       2.443023139027e+03 
       1.146158836804e-01       2.365723562627e+03 
       1.185165121210e-01       2.292436547454e+03 
       1.225333287060e-01       2.220665168148e+03 
       1.266725021697e-01       2.147893262182e+03 
       1.309401633391e-01       2.072274689265e+03 
       1.353424221903e-01       1.992889145492e+03 
       1.398853809047e-01       1.910087135353e+03 
       1.445751442174e-01       1.825440120767e+03 
       1.494178281822e-01       1.741406852858e+03 
       1.544195683780e-01       1.660782267016e+03 
       1.595865285133e-01       1.586075646904e+03 
       1.649249103435e-01       1.518736341456e+03 
       1.704409657931e-01       1.458750904228e+03 
       1.761410121539e-01       1.404751999368e+03 
       1.820314512226e-01       1.354086353053e+03 
       1.881187932333e-01       1.303984981751e+03 
       1.944096864359e-01       1.252416254347e+03 
       2.009109531838e-01       1.198420709728e+03 
       2.076296334070e-01       1.142984352190e+03 
       2.145730363960e-01       1.088570195137e+03 
       2.217488018888e-01       1.037778474337e+03 
       2.291649715731e-01       9.919965499863e+02 
       2.368300722872e-01       9.509177921692e+02 
       2.447532124560e-01       9.130427697289e+02 
       2.529441936432e-01       8.763231538415e+02 
       2.614136395779e-01       8.391366069083e+02 
       2.701731456474e-01       8.014047289316e+02 
       2.792354526936e-01       7.644438215883e+02 
       2.886146500654e-01       7.297488166594e+02 
       2.983264143583e-01       6.981089419142e+02 
       3.083882922316e-01       6.689375442163e+02 
       3.188200383109e-01       6.408111516006e+02 
       3.296440227144e-01       6.129078468696e+02 
       3.408857275471e-01       5.854346241551e+02 
       3.525743583400e-01       5.592460119877e+02 
       3.647436056834e-01       5.348319825606e+02 
       3.774326054727e-01       5.117795408471e+02 
       3.906871651805e-01       4.894127622906e+02 
       4.045613514742e-01       4.675206200369e+02 
       4.191195762682e-01       4.465076326825e+02 
       4.344393821622e-01       4.265236659244e+02 
       4.506152281196e-01       4.072843795265e+02 
       4.677637365546e-01       3.885573326281e+02 
       4.860311276411e-01       3.703591308065e+02 
       5.056040175787e-01       3.527520921785e+02 
       5.267255536946e-01       3.355639282195e+02 
       5.497203226625e-01       3.186443361072e+02 
       5.750342836549e-01       3.019717460525e+02 
       6.033016840319e-01       2.853547513230e+02 
       6.354631795469e-01       2.686222367329e+02 
       6.729875345321e-01       2.515267228741e+02 
       7.183185750388e-01       2.336888758845e+02 
       7.758504068304e-01       2.145378647239e+02 
       8.542085800993e-01       1.931575148042e+02 
       9.714623301726e-01       1.682216652408e+02 
       1.161181126696e+00       1.390000316522e+02 
       1.447895319302e+00       1.091373965738e+02 
       1.822129117400e+00       8.338499659944e+01 
       2.293917960331e+00       6.193609104288e+01 
       2.887871601079e+00       4.439294722166e+01 
       3.635614944594e+00       3.059797468364e+01 
       4.576968041248e+00       2.031903868221e+01 
       5.762061376097e+00       1.307204319558e+01 
       7.254005490687e+00       8.199388729144e+00 
       9.132251849520e+00       5.043608141852e+00 
       1.149682392026e+01       3.057208003439e+00 
