# Matter power spectrum P(k) at redshift z=0
# for k=7.46735e-06 to 11.8478 h/Mpc,
# number of wavenumbers equal to 124
#    1:k (h/Mpc)              2:P (Mpc/h)^3        
       7.467351644259e-06       1.382210373513e+02 
       9.400838743760e-06       1.723783894011e+02 
       1.183495478670e-05       2.149766057962e+02 
       1.489932532841e-05       2.681009353630e+02 
       1.875713927452e-05       3.343520327169e+02 
       2.361383928526e-05       4.169719611703e+02 
       2.972806234624e-05       5.200027165348e+02 
       3.742541313108e-05       6.484819328431e+02 
       4.711580363761e-05       8.086856519294e+02 
       5.931528249650e-05       1.008428676740e+03 
       7.467351644259e-05       1.257432675748e+03 
       9.400838743760e-05       1.567773974391e+03 
       1.183495478670e-04       1.954420208450e+03 
       1.489932532841e-04       2.435858039602e+03 
       1.875713927452e-04       3.034798975691e+03 
       2.361383928526e-04       3.778923434338e+03 
       2.972806234624e-04       4.701579890926e+03 
       3.742541313108e-04       5.842306994330e+03 
       4.711580363761e-04       7.247007097718e+03 
       5.931528249650e-04       8.967557536551e+03 
       7.467351644259e-04       1.106042671886e+04 
       9.400838743760e-04       1.358327340507e+04 
       1.183495478670e-03       1.658809144031e+04 
       1.489932532841e-03       2.011134155760e+04 
       1.875713927452e-03       2.415847000734e+04 
       2.361383928526e-03       2.868526901917e+04 
       2.972806234624e-03       3.357643711108e+04 
       3.742541313108e-03       3.861864987614e+04 
       4.711580363761e-03       4.341985116610e+04 
       5.931528249650e-03       4.762219774138e+04 
       7.467351644259e-03       5.056597336333e+04 
       9.400838743760e-03       5.153684351885e+04 
       1.183495478669e-02       4.977388953089e+04 
       1.489932526526e-02       4.475724332627e+04 
       1.875708281903e-02       3.670922559079e+04 
       2.360493228521e-02       2.721950891033e+04 
       2.939498292394e-02       1.934942931733e+04 
       3.445248433672e-02       1.560413541581e+04 
       3.809324589809e-02       1.417511346810e+04 
       4.106704240359e-02       1.347174933801e+04 
       4.370886202657e-02       1.301925086660e+04 
       4.616563250685e-02       1.263041586522e+04 
       4.851411754439e-02       1.221814968715e+04 
       5.079992024581e-02       1.173749219368e+04 
       5.305278788534e-02       1.117108688792e+04 
       5.529357019165e-02       1.051964710649e+04 
       5.753775216640e-02       9.800660642085e+03 
       5.979740480724e-02       9.039051689827e+03 
       6.208233521245e-02       8.267941884994e+03 
       6.440080113832e-02       7.520141047764e+03 
       6.675997429481e-02       6.826861892319e+03 
       6.916625146435e-02       6.213290934458e+03 
       7.162546958184e-02       5.695449554717e+03 
       7.414305801789e-02       5.282200330451e+03 
       7.672414850959e-02       4.972040477285e+03 
       7.937365573673e-02       4.756074132526e+03 
       8.209633705705e-02       4.617338974204e+03 
       8.489683713388e-02       4.532010931144e+03 
       8.777972142321e-02       4.471530829482e+03 
       9.074950134361e-02       4.404931560374e+03 
       9.381065319963e-02       4.301951069791e+03 
       9.696763243076e-02       4.142171041119e+03 
       1.002248844252e-01       3.918139656095e+03 
       1.035868529168e-01       3.639366915218e+03 
       1.070579868379e-01       3.329256482116e+03 
       1.106427464056e-01       3.020211196940e+03 
       1.143456091606e-01       2.743411887746e+03 
       1.181710766365e-01       2.521473677997e+03 
       1.221236823175e-01       2.363961909630e+03 
       1.262080015246e-01       2.266118330748e+03 
       1.304286638634e-01       2.210325093676e+03 
       1.347903688561e-01       2.171122206749e+03 
       1.392979053805e-01       2.118949121990e+03 
       1.439561755391e-01       2.031533884828e+03 
       1.487702235891e-01       1.905285297412e+03 
       1.537452705885e-01       1.755791318419e+03 
       1.588867554523e-01       1.608095356747e+03 
       1.642003831820e-01       1.484067584154e+03 
       1.696921811363e-01       1.395257963086e+03 
       1.753685643608e-01       1.338884440187e+03 
       1.812364112166e-01       1.298862585380e+03 
       1.873031508376e-01       1.254567731937e+03 
       1.935768643545e-01       1.193031564595e+03 
       2.000664023533e-01       1.115467331857e+03 
       2.067815217488e-01       1.036012112079e+03 
       2.137330461872e-01       9.700156154824e+02 
       2.209330553363e-01       9.219666938768e+02 
       2.283951100711e-01       8.852132385255e+02 
       2.361345227804e-01       8.480976655781e+02 
       2.441686850210e-01       8.034734459792e+02 
       2.525174688633e-01       7.551339834436e+02 
       2.612037239871e-01       7.113102343608e+02 
       2.702539006397e-01       6.762026648367e+02 
       2.796988400975e-01       6.455502235588e+02 
       2.895747910506e-01       6.139006031182e+02 
       2.999247352101e-01       5.804483541058e+02 
       3.108001430759e-01       5.489933103675e+02 
       3.222633390039e-01       5.213635470233e+02 
       3.343907469090e-01       4.954910119259e+02 
       3.472774379899e-01       4.690511109113e+02 
       3.610436534445e-01       4.434928394239e+02 
       3.758444114134e-01       4.199118294776e+02 
       3.918840930785e-01       3.967100656537e+02 
       4.094393798358e-01       3.737939988185e+02 
       4.288968287070e-01       3.516849948431e+02 
       4.508174550095e-01       3.295808648545e+02 
       4.760541975663e-01       3.074699390074e+02 
       5.059802618551e-01       2.848628832872e+02 
       5.429681163691e-01       2.612705405522e+02 
       5.914761576256e-01       2.358115438141e+02 
       6.606205961071e-01       2.072322750740e+02 
       7.691954606802e-01       1.742674577588e+02 
       9.432330213441e-01       1.388089909691e+02 
       1.184827388156e+00       1.077094479968e+02 
       1.491552308418e+00       8.292056497568e+01 
       1.877752857444e+00       6.313380800944e+01 
       2.363950789150e+00       4.731763384254e+01 
       2.976037720692e+00       3.476807351596e+01 
       3.746609513037e+00       2.496194638771e+01 
       4.716701924032e+00       1.747349894303e+01 
       5.937975912022e+00       1.192131066430e+01 
       7.475468770266e+00       7.937636658541e+00 
       9.411057599962e+00       5.170347437717e+00 
       1.184781956445e+01       3.304214851355e+00 
