# Matter power spectrum P(k) at redshift z=1
# for k=1.14769e-05 to 11.4895 h/Mpc,
# number of wavenumbers equal to 122
#    1:k (h/Mpc)              2:P (Mpc/h)^3        
       1.147693131868e-05       1.264094494681e+01 
       1.444860048650e-05       1.574740934701e+01 
       1.818971031732e-05       1.961726459793e+01 
       2.289948855165e-05       2.443809605398e+01 
       2.882874805476e-05       3.044357558152e+01 
       3.629324351635e-05       3.792476926588e+01 
       4.569048653916e-05       4.724421549111e+01 
       5.752091458139e-05       5.885343610033e+01 
       7.241454107616e-05       7.331469367381e+01 
       9.116450594419e-05       9.132799357452e+01 
       1.147693131868e-04       1.137645195061e+02 
       1.444860048650e-04       1.417078781957e+02 
       1.818971031732e-04       1.765047068317e+02 
       2.289948855165e-04       2.198262110592e+02 
       2.882874805476e-04       2.737419691096e+02 
       3.629324351635e-04       3.408065600639e+02 
       4.569048653916e-04       4.241579266048e+02 
       5.752091458139e-04       5.276236014394e+02 
       7.241454107616e-04       6.558272245461e+02 
       9.116450594419e-04       8.142840133112e+02 
       1.147693131868e-03       1.009468795633e+03 
       1.444860048650e-03       1.248779883392e+03 
       1.818971031732e-03       1.540445197322e+03 
       2.289948855165e-03       1.893109987741e+03 
       2.882874805476e-03       2.314968014287e+03 
       3.629324351635e-03       2.812470570688e+03 
       4.569048653916e-03       3.388314980719e+03 
       5.752091458139e-03       4.029149546781e+03 
       7.241454107616e-03       4.734389392720e+03 
       9.116450594419e-03       5.466276612049e+03 
       1.147693131868e-02       6.171508387692e+03 
       1.444860048650e-02       6.769067788536e+03 
       1.818971031712e-02       7.150368848664e+03 
       2.289948778633e-02       7.195817987670e+03 
       2.882834533795e-02       6.825171118046e+03 
       3.625198094132e-02       6.088117115199e+03 
       4.465095355656e-02       5.287300478568e+03 
       5.123346855178e-02       4.807228793032e+03 
       5.612195945771e-02       4.534362906540e+03 
       6.023500371087e-02       4.344672271202e+03 
       6.394676807164e-02       4.191991441705e+03 
       6.743034703650e-02       4.055504696633e+03 
       7.077996901473e-02       3.923784782382e+03 
       7.405328540595e-02       3.790636197387e+03 
       7.728874740771e-02       3.652506996302e+03 
       8.051378519634e-02       3.508281852101e+03 
       8.374907062974e-02       3.358347344435e+03 
       8.701091911581e-02       3.204436567615e+03 
       9.031272863480e-02       3.049332479803e+03 
       9.366588550493e-02       2.896321805056e+03 
       9.708035795421e-02       2.748919152605e+03 
       1.005650982569e-01       2.610477768977e+03 
       1.041283227679e-01       2.483759916941e+03 
       1.077777113788e-01       2.370702593080e+03 
       1.115205521866e-01       2.272054079457e+03 
       1.153638479161e-01       2.187267914137e+03 
       1.193143950178e-01       2.114580766141e+03 
       1.233788428541e-01       2.051032095876e+03 
       1.275637381420e-01       1.992668493358e+03 
       1.318755583621e-01       1.935164435451e+03 
       1.363207368803e-01       1.874407187123e+03 
       1.409056818877e-01       1.807308650557e+03 
       1.456367908402e-01       1.732430947219e+03 
       1.505204617924e-01       1.650528161119e+03 
       1.555631028399e-01       1.564388996411e+03 
       1.607711407589e-01       1.478275047464e+03 
       1.661510298590e-01       1.396939863479e+03 
       1.717092620166e-01       1.324481996507e+03 
       1.774523788266e-01       1.263095424662e+03 
       1.833869867903e-01       1.212627054833e+03 
       1.895197764461e-01       1.170520562924e+03 
       1.958575463406e-01       1.132753732674e+03 
       2.024072327327e-01       1.094031956774e+03 
       2.091759459324e-01       1.050525519207e+03 
       2.161710141881e-01       1.001290883879e+03 
       2.234000360791e-01       9.486475193752e+02 
       2.308709424374e-01       8.967069492227e+02 
       2.385920689306e-01       8.496532664203e+02 
       2.465722406130e-01       8.100232094189e+02 
       2.548208699878e-01       7.775196912501e+02 
       2.633480704713e-01       7.490428660285e+02 
       2.721647876134e-01       7.206289780883e+02 
       2.812829510562e-01       6.895581852527e+02 
       2.907156510486e-01       6.558806011223e+02 
       3.004773444396e-01       6.223622199897e+02 
       3.105840965318e-01       5.922277306362e+02 
       3.210538671150e-01       5.666153027920e+02 
       3.319068515823e-01       5.441570937929e+02 
       3.431658915043e-01       5.221074085516e+02 
       3.548569737605e-01       4.988598736120e+02 
       3.670098438196e-01       4.751734870731e+02 
       3.796587678218e-01       4.530198774256e+02 
       3.928434909291e-01       4.334298243422e+02 
       4.066104578430e-01       4.153583306434e+02 
       4.210143883538e-01       3.973076133558e+02 
       4.361203409899e-01       3.790822122847e+02 
       4.520064590233e-01       3.617269308182e+02 
       4.687676883335e-01       3.457297082310e+02 
       4.865209086359e-01       3.303523093146e+02 
       5.054121689749e-01       3.149851191812e+02 
       5.256271403979e-01       3.000817897140e+02 
       5.474066381075e-01       2.858820016676e+02 
       5.710704125650e-01       2.718204374426e+02 
       5.970549752590e-01       2.578893176254e+02 
       6.259763668312e-01       2.441702696395e+02 
       6.587396870534e-01       2.303051661936e+02 
       6.967419030183e-01       2.162161155045e+02 
       7.422743691857e-01       2.015451058504e+02 
       7.993866363849e-01       1.858733954499e+02 
       8.758838987085e-01       1.684678175816e+02 
       9.879987357048e-01       1.482253638309e+02 
       1.167725322728e+00       1.241407556651e+02 
       1.447636249784e+00       9.827172521868e+01 
       1.820979398608e+00       7.534105984280e+01 
       2.292456455486e+00       5.623100475721e+01 
       2.886031633266e+00       4.059959543222e+01 
       3.633298562342e+00       2.824658039061e+01 
       4.574051888768e+00       1.894548523874e+01 
       5.758390157635e+00       1.230141548281e+01 
       7.249383700472e+00       7.776233205390e+00 
       9.126433360371e+00       4.812392520732e+00 
       1.148949887642e+01       2.929852827560e+00 
