# Matter power spectrum P(k) at redshift z=2.5
# for k=1.03717e-05 to 10.3856 h/Mpc,
# number of wavenumbers equal to 122
#    1:k (h/Mpc)              2:P (Mpc/h)^3        
       1.037169642320e-05       7.725704834928e+00 
       1.305719219058e-05       9.650889061715e+00 
       1.643803105540e-05       1.205580089090e+01 
       2.069425501551e-05       1.505996938296e+01 
       2.605252351717e-05       1.881269283745e+01 
       3.279818389713e-05       2.350044025747e+01 
       4.129046716880e-05       2.935608559940e+01 
       5.198161838365e-05       3.667040290741e+01 
       6.544098032937e-05       4.580637703932e+01 
       8.238531310937e-05       5.721694537191e+01 
       1.037169642320e-04       7.146693364409e+01 
       1.305719219058e-04       8.925997558028e+01 
       1.643803105540e-04       1.114712302265e+02 
       2.069425501551e-04       1.391864530103e+02 
       2.605252351717e-04       1.737473644284e+02 
       3.279818389713e-04       2.168018180072e+02 
       4.129046716880e-04       2.703545145937e+02 
       5.198161838365e-04       3.368093458560e+02 
       6.544098032937e-04       4.189879473311e+02 
       8.238531310937e-04       5.201029861875e+02 
       1.037169642320e-03       6.436646965373e+02 
       1.305719219058e-03       7.933067799016e+02 
       1.643803105540e-03       9.725022795068e+02 
       2.069425501551e-03       1.184046094381e+03 
       2.605252351717e-03       1.429159138232e+03 
       3.279818389713e-03       1.706380174527e+03 
       4.129046716880e-03       2.010330940361e+03 
       5.198161838365e-03       2.330370316394e+03 
       6.544098032937e-03       2.649543707999e+03 
       8.238531310937e-03       2.944215347879e+03 
       1.037169642320e-02       3.184283899034e+03 
       1.305719219058e-02       3.335528875977e+03 
       1.643803105540e-02       3.363412871996e+03 
       2.069425500009e-02       3.241063637483e+03 
       2.605250217847e-02       2.963302246988e+03 
       3.279337567653e-02       2.564615171345e+03 
       4.104596559863e-02       2.133725050228e+03 
       4.896003352235e-02       1.819255016597e+03 
       5.462765455644e-02       1.643045875244e+03 
       5.913375527779e-02       1.522286431076e+03 
       6.308003591514e-02       1.425622200575e+03 
       6.672021273348e-02       1.341513345155e+03 
       7.018228778317e-02       1.264896797395e+03 
       7.354043353454e-02       1.193393421261e+03 
       7.684214565657e-02       1.125934706738e+03 
       8.012023328757e-02       1.062145487348e+03 
       8.339877500124e-02       1.002023622286e+03 
       8.669635270993e-02       9.457242516599e+02 
       9.002793318620e-02       8.934247078464e+02 
       9.340602461863e-02       8.452444000395e+02 
       9.684141995255e-02       8.011530975161e+02 
       1.003436924755e-01       7.609516764629e+02 
       1.039215363818e-01       7.242695253483e+02 
       1.075830067247e-01       6.905675613378e+02 
       1.113356919542e-01       6.591850498470e+02 
       1.151868399990e-01       6.294178878345e+02 
       1.191434515316e-01       6.005980550593e+02 
       1.232123495480e-01       5.721850663726e+02 
       1.274002315409e-01       5.438459972388e+02 
       1.317137087072e-01       5.154938305184e+02 
       1.361593354238e-01       4.873058104421e+02 
       1.407436314281e-01       4.596647617306e+02 
       1.454730986057e-01       4.330538501747e+02 
       1.503542339358e-01       4.079414250726e+02 
       1.553935399101e-01       3.846718653029e+02 
       1.605975335876e-01       3.633486188077e+02 
       1.659727553516e-01       3.438113512084e+02 
       1.715257783735e-01       3.257157652145e+02 
       1.772632197479e-01       3.086091753118e+02 
       1.831917542421e-01       2.920608218769e+02 
       1.893181315862e-01       2.758187796613e+02 
       1.956491982173e-01       2.598389499406e+02 
       2.021919243887e-01       2.443020027055e+02 
       2.089534375534e-01       2.294170315976e+02 
       2.159410629403e-01       2.154811776201e+02 
       2.231623722723e-01       2.026484593710e+02 
       2.306252416238e-01       1.907359852228e+02 
       2.383379195094e-01       1.795442194716e+02 
       2.463091064296e-01       1.688736929675e+02 
       2.545480473104e-01       1.585832517400e+02 
       2.630646385641e-01       1.487113345921e+02 
       2.718695519064e-01       1.394138383435e+02 
       2.809743776116e-01       1.306864995863e+02 
       2.903917906265e-01       1.224658883281e+02 
       3.001357439331e-01       1.147675179433e+02 
       3.102216948415e-01       1.075137272312e+02 
       3.206668715968e-01       1.006003204257e+02 
       3.314905899502e-01       9.407775678829e+01 
       3.427146323772e-01       8.792520808024e+01 
       3.543637067264e-01       8.212348389504e+01 
       3.664660066858e-01       7.667291968470e+01 
       3.790539042177e-01       7.151036355641e+01 
       3.921648150073e-01       6.665073809242e+01 
       4.058422935167e-01       6.204048860476e+01 
       4.201374367748e-01       5.769899243659e+01 
       4.351107093077e-01       5.359465365677e+01 
       4.508343517302e-01       4.971462509099e+01 
       4.673956126086e-01       4.602984901352e+01 
       4.849011646671e-01       4.255139412514e+01 
       5.034832628360e-01       3.924233819677e+01 
       5.233085287291e-01       3.609683760443e+01 
       5.445908089208e-01       3.310419163233e+01 
       5.676105590421e-01       3.024326892949e+01 
       5.927450755461e-01       2.749932470248e+01 
       6.205175458965e-01       2.485615551731e+01 
       6.516804027593e-01       2.229473453730e+01 
       6.873649166599e-01       1.979192771486e+01 
       7.293674766099e-01       1.732076367274e+01 
       7.807396713794e-01       1.484808223526e+01 
       8.471050068889e-01       1.232879088802e+01 
       9.397710499522e-01       9.710525094332e+00 
       1.082392967423e+00       6.989745017547e+00 
       1.313425206648e+00       4.428210497072e+00 
       1.646191086730e+00       2.576931220041e+00 
       2.072209279051e+00       1.471439023564e+00 
       2.608755512964e+00       8.333992925266e-01 
       3.284228607023e+00       4.686651162442e-01 
       4.134598851523e+00       2.618602840581e-01 
       5.205151561757e+00       1.454496997257e-01 
       6.552897573336e+00       8.035611147255e-02 
       8.249609275957e+00       4.417496937450e-02 
       1.038564275488e+01       2.417484542377e-02 
