# Matter power spectrum P(k) at redshift z=1.5
# for k=8.11481e-06 to 10.2279 h/Mpc,
# number of wavenumbers equal to 123
#    1:k (h/Mpc)              2:P (Mpc/h)^3        
       8.114806764558e-06       2.871452773165e+01 
       1.021593644770e-05       3.591457093288e+01 
       1.286110199929e-05       4.491995672446e+01 
       1.619116813058e-05       5.618329177551e+01 
       2.038347300622e-05       7.027062005537e+01 
       2.566127214815e-05       8.788977556000e+01 
       3.230562760627e-05       1.099258295037e+02 
       4.067037553749e-05       1.374852494264e+02 
       5.120096927136e-05       1.719509144950e+02 
       6.445820132420e-05       2.150503991471e+02 
       8.114806764558e-05       2.689404065733e+02 
       1.021593644770e-04       3.363104246783e+02 
       1.286110199929e-04       4.205085916070e+02 
       1.619116813058e-04       5.256918213913e+02 
       2.038347300622e-04       6.569996762665e+02 
       2.566127214815e-04       8.207460504618e+02 
       3.230562760627e-04       1.024612881098e+03 
       4.067037553749e-04       1.277815130345e+03 
       5.120096927136e-04       1.591189309506e+03 
       6.445820132420e-04       1.977148339446e+03 
       8.114806764558e-04       2.449447177236e+03 
       1.021593644770e-03       3.022595635839e+03 
       1.286110199929e-03       3.710834761568e+03 
       1.619116813058e-03       4.525831014375e+03 
       2.038347300622e-03       5.473291637116e+03 
       2.566127214815e-03       6.548704754839e+03 
       3.230562760627e-03       7.731984781540e+03 
       4.067037553749e-03       8.980564822877e+03 
       5.120096927136e-03       1.021983747355e+04 
       6.445820132420e-03       1.134641674131e+04 
       8.114806764558e-03       1.220914376591e+04 
       1.021593644770e-02       1.261773708736e+04 
       1.286110199928e-02       1.235767811212e+04 
       1.619116809181e-02       1.125176126451e+04 
       2.038343296244e-02       9.297700314185e+03 
       2.565416540998e-02       6.858708003046e+03 
       3.201105170897e-02       4.737624439984e+03 
       3.774086684206e-02       3.694009523171e+03 
       4.184802600970e-02       3.320725010597e+03 
       4.517382211069e-02       3.161132469639e+03 
       4.811486075131e-02       3.077548830727e+03 
       5.084273052338e-02       3.016222242749e+03 
       5.344606010377e-02       2.950373560484e+03 
       5.597707380414e-02       2.865167032747e+03 
       5.846963120919e-02       2.753210357215e+03 
       6.094735079128e-02       2.612631590576e+03 
       6.342770485928e-02       2.446024408255e+03 
       6.592426819708e-02       2.259692763798e+03 
       6.844803802666e-02       2.062436442741e+03 
       7.100825120814e-02       1.864209430791e+03 
       7.361291255533e-02       1.675100766374e+03 
       7.626914877113e-02       1.503668192391e+03 
       7.898345264465e-02       1.356532572296e+03 
       8.176185567082e-02       1.237597668625e+03 
       8.461005250032e-02       1.148247470527e+03 
       8.753349206700e-02       1.087345657530e+03 
       9.053744509674e-02       1.051636317158e+03 
       9.362705451983e-02       1.035624016293e+03 
       9.680737329035e-02       1.031980301102e+03 
       1.000833928108e-01       1.031623187677e+03 
       1.034600643019e-01       1.024921008185e+03 
       1.069423148901e-01       1.003216135190e+03 
       1.105350598044e-01       9.610235646741e+02 
       1.142432118235e-01       8.978793478183e+02 
       1.180716889492e-01       8.187708812982e+02 
       1.220254211702e-01       7.328949405187e+02 
       1.261093571158e-01       6.510084880908e+02 
       1.303284713525e-01       5.824023722145e+02 
       1.346877730514e-01       5.326495377366e+02 
       1.391923167356e-01       5.029203479064e+02 
       1.438472158069e-01       4.902319042738e+02 
       1.486576595431e-01       4.878964364379e+02 
       1.536289342528e-01       4.858897303583e+02 
       1.587664492759e-01       4.748318955716e+02 
       1.640757685273e-01       4.497295136284e+02 
       1.695626483049e-01       4.121518725305e+02 
       1.752330821256e-01       3.691485984843e+02 
       1.810933534255e-01       3.298867740703e+02 
       1.871500970734e-01       3.013652915259e+02 
       1.934103708100e-01       2.853902931999e+02 
       1.998817379594e-01       2.783792513953e+02 
       2.065723630811e-01       2.734231535755e+02 
       2.134911226620e-01       2.633368395445e+02 
       2.206477335316e-01       2.451742077367e+02 
       2.280529024469e-01       2.224818851580e+02 
       2.357185013104e-01       2.017404333548e+02 
       2.436577738283e-01       1.873921355814e+02 
       2.518855812020e-01       1.792841197740e+02 
       2.604186968431e-01       1.730759383392e+02 
       2.692761633477e-01       1.642205171761e+02 
       2.784797294044e-01       1.517482541294e+02 
       2.880543904792e-01       1.389290071135e+02 
       2.980290657921e-01       1.291757305749e+02 
       3.084374565046e-01       1.225049498941e+02 
       3.193191480635e-01       1.161488756546e+02 
       3.307210463445e-01       1.081862845867e+02 
       3.426992775560e-01       9.966903203151e+01 
       3.553217441058e-01       9.272634437978e+01 
       3.686716270511e-01       8.717023967191e+01 
       3.828522855747e-01       8.118527450435e+01 
       3.979942712903e-01       7.480725574529e+01 
       4.142656375719e-01       6.931798537127e+01 
       4.318875543618e-01       6.425175475569e+01 
       4.511587944272e-01       5.893833112946e+01 
       4.724957154632e-01       5.400555342318e+01 
       4.965007152132e-01       4.921279612388e+01 
       5.240861758973e-01       4.442524865325e+01 
       5.567141277273e-01       3.971209341181e+01 
       5.968960264047e-01       3.492716053356e+01 
       6.493204260111e-01       2.996852203375e+01 
       7.235229223164e-01       2.470449027879e+01 
       8.392913828334e-01       1.909670695981e+01 
       1.025737573288e+00       1.368357199758e+01 
       1.287685450860e+00       9.572771417423e+00 
       1.621011582535e+00       6.805704184604e+00 
       2.040732239098e+00       4.917245434902e+00 
       2.569129674148e+00       3.588685075230e+00 
       3.234342632979e+00       2.626629148708e+00 
       4.071796131107e+00       1.913708307779e+00 
       5.126087621096e+00       1.378088464579e+00 
       6.453361969281e+00       9.747705849510e-01 
       8.124301374634e+00       6.740285388413e-01 
       1.022788945360e+01       4.543088597404e-01 
