# Matter power spectrum P(k) at redshift z=1
# for k=8.43452e-06 to 10.6315 h/Mpc,
# number of wavenumbers equal to 123
#    1:k (h/Mpc)              2:P (Mpc/h)^3        
       8.434523632870e-06       4.681678947922e+01 
       1.061843613780e-05       5.844275595613e+01 
       1.336781908739e-05       7.295566201788e+01 
       1.682908714938e-05       9.107232317479e+01 
       2.118656546965e-05       1.136873281472e+02 
       2.667230565839e-05       1.419172753502e+02 
       3.357844338448e-05       1.771554385055e+02 
       4.227275566522e-05       2.211400724394e+02 
       5.321824633351e-05       2.760389962467e+02 
       6.699780268038e-05       3.445542878498e+02 
       8.434523632870e-05       4.300509968085e+02 
       1.061843613780e-04       5.367139880669e+02 
       1.336781908739e-04       6.697363490303e+02 
       1.682908714938e-04       8.355404371500e+02 
       2.118656546965e-04       1.042027122630e+03 
       2.667230565839e-04       1.298838090259e+03 
       3.357844338448e-04       1.617598239679e+03 
       4.227275566522e-04       2.012080113583e+03 
       5.321824633351e-04       2.498209618803e+03 
       6.699780268038e-04       3.093826663685e+03 
       8.434523632870e-04       3.818111629342e+03 
       1.061843613780e-03       4.690450558047e+03 
       1.336781908739e-03       5.728145588706e+03 
       1.682908714938e-03       6.942526083343e+03 
       2.118656546965e-03       8.333820504486e+03 
       2.667230565839e-03       9.884734405032e+03 
       3.357844338448e-03       1.155355650641e+04 
       4.227275566522e-03       1.326707125258e+04 
       5.321824633351e-03       1.490097305297e+04 
       6.699780268038e-03       1.633385163697e+04 
       8.434523632870e-03       1.737404479609e+04 
       1.061843613780e-02       1.782226578046e+04 
       1.336781908739e-02       1.748381941263e+04 
       1.682908712144e-02       1.622918570339e+04 
       2.118653382650e-02       1.409970138520e+04 
       2.666625147078e-02       1.143960945458e+04 
       3.331066114537e-02       8.957368218157e+03 
       3.941993386041e-02       7.482129424449e+03 
       4.379265406157e-02       6.769019311939e+03 
       4.731349390223e-02       6.316489373613e+03 
       5.041770752756e-02       5.962958665723e+03 
       5.329202325941e-02       5.649583689509e+03 
       5.603218272757e-02       5.350881237896e+03 
       5.869430675335e-02       5.055882454855e+03 
       6.131463961513e-02       4.761053623880e+03 
       6.391838588568e-02       4.467856985620e+03 
       6.652414444008e-02       4.179682334096e+03 
       6.914633467426e-02       3.901685985372e+03 
       7.179661673401e-02       3.639219177235e+03 
       7.448476881149e-02       3.397082308116e+03 
       7.721925326758e-02       3.179078148461e+03 
       8.000759531815e-02       2.987175172086e+03 
       8.285664397911e-02       2.821784355263e+03 
       8.577275633479e-02       2.681331405075e+03 
       8.876193027594e-02       2.562174953616e+03 
       9.182990163376e-02       2.459488196937e+03 
       9.498221610542e-02       2.367191218677e+03 
       9.822428294855e-02       2.278891585484e+03 
       1.015614152570e-01       2.188923830826e+03 
       1.049988602306e-01       2.092813839357e+03 
       1.085418219316e-01       1.988422266368e+03 
       1.121954784139e-01       1.876289627642e+03 
       1.159649947018e-01       1.759850063881e+03 
       1.198555328291e-01       1.644032037273e+03 
       1.238722599671e-01       1.534413366344e+03 
       1.280203555582e-01       1.435841562038e+03 
       1.323050182941e-01       1.350967349189e+03 
       1.367314737347e-01       1.279896955046e+03 
       1.413049833296e-01       1.220085932837e+03 
       1.460308555930e-01       1.167169222605e+03 
       1.509144601636e-01       1.116138684418e+03 
       1.559612454767e-01       1.062877681355e+03 
       1.611767607720e-01       1.005804032494e+03 
       1.665666831582e-01       9.454954255768e+02 
       1.721368504681e-01       8.858308017379e+02 
       1.778933006588e-01       8.303491185171e+02 
       1.838423185579e-01       7.815787730988e+02 
       1.899904908293e-01       7.397313126354e+02 
       1.963447701500e-01       7.025874250091e+02 
       2.029125497557e-01       6.673006961910e+02 
       2.097017497587e-01       6.322308058181e+02 
       2.167209169705e-01       5.969840049729e+02 
       2.239793404136e-01       5.621460433564e+02 
       2.314871853053e-01       5.293542131211e+02 
       2.392556490961e-01       4.998458311321e+02 
       2.472971441924e-01       4.731705160763e+02 
       2.556255133915e-01       4.482518468054e+02 
       2.642562859058e-01       4.241200054707e+02 
       2.732069843389e-01       4.004675223233e+02 
       2.824974963337e-01       3.780483588183e+02 
       2.921505292135e-01       3.571835661270e+02 
       3.021921723114e-01       3.378463729394e+02 
       3.126526006511e-01       3.195705371662e+02 
       3.235669664534e-01       3.019271236321e+02 
       3.349765435480e-01       2.851209363491e+02 
       3.469302172969e-01       2.693083002625e+02 
       3.594864541714e-01       2.543616456247e+02 
       3.727159491696e-01       2.400442066354e+02 
       3.867052504218e-01       2.263667415254e+02 
       4.015618243781e-01       2.133296157754e+02 
       4.174212990120e-01       2.008238052556e+02 
       4.344580956194e-01       1.887937141180e+02 
       4.529015077976e-01       1.771690558441e+02 
       4.730608715712e-01       1.659008515795e+02 
       4.953665803105e-01       1.548810820289e+02 
       5.204401396792e-01       1.440211902673e+02 
       5.492206497362e-01       1.332007954573e+02 
       5.832085660649e-01       1.222522260366e+02 
       6.249721371202e-01       1.109443618779e+02 
       6.792861256305e-01       9.893216286007e+01 
       7.558273210808e-01       8.572283109876e+01 
       8.747415756559e-01       7.083010128855e+01 
       1.066705532597e+00       5.505599801788e+01 
       1.338515799281e+00       4.145997249883e+01 
       1.684977190184e+00       3.103193219934e+01 
       2.121259992886e+00       2.301188118353e+01 
       2.670508109571e+00       1.680237876876e+01 
       3.361970521541e+00       1.201856382426e+01 
       4.232470123271e+00       8.389808109333e+00 
       5.328364192845e+00       5.701504127107e+00 
       6.708013085667e+00       3.767947958933e+00 
       8.444888136194e+00       2.423430883332e+00 
       1.063148427441e+01       1.520946670810e+00 
