# Matter power spectrum P(k) at redshift z=0.5
# for k=1.13589e-05 to 11.3744 h/Mpc,
# number of wavenumbers equal to 122
#    1:k (h/Mpc)              2:P (Mpc/h)^3        
       1.135890234065e-05       1.521637231369e+01 
       1.430001080673e-05       1.900293831051e+01 
       1.800264699353e-05       2.373177229340e+01 
       2.266398977971e-05       2.963734178062e+01 
       2.853227266632e-05       3.701244462669e+01 
       3.592000311588e-05       4.622271049535e+01 
       4.522060471430e-05       5.772470161600e+01 
       5.692936841153e-05       7.208846873873e+01 
       7.166982857067e-05       9.002569156719e+01 
       9.022696844655e-05       1.124246850533e+02 
       1.135890234065e-04       1.403939150558e+02 
       1.430001080673e-04       1.753158918709e+02 
       1.800264699353e-04       2.189136522095e+02 
       2.266398977971e-04       2.733321580592e+02 
       2.853227266632e-04       3.412368911945e+02 
       3.592000311588e-04       4.259313287162e+02 
       4.522060471430e-04       5.314935977401e+02 
       5.692936841153e-04       6.629302320701e+02 
       7.166982857067e-04       8.263417566635e+02 
       9.022696844655e-04       1.029090692884e+03 
       1.135890234065e-03       1.279952725031e+03 
       1.430001080673e-03       1.589150174064e+03 
       1.800264699353e-03       1.968303724938e+03 
       2.266398977971e-03       2.430152917836e+03 
       2.853227266632e-03       2.987603817934e+03 
       3.592000311588e-03       3.652307261122e+03 
       4.522060471430e-03       4.418060567497e+03 
       5.692936841153e-03       5.306595013624e+03 
       7.166982857067e-03       6.295286750909e+03 
       9.022696844655e-03       7.350995540085e+03 
       1.135890234065e-02       8.410539333151e+03 
       1.430001080673e-02       9.372904335993e+03 
       1.800264699195e-02       1.009744752822e+04 
       2.266398607414e-02       1.042146465917e+04 
       2.853098691729e-02       1.022271816177e+04 
       3.582632385094e-02       9.538200848326e+03 
       4.353436817328e-02       8.744929714066e+03 
       4.921310913717e-02       8.247787431497e+03 
       5.357279464438e-02       7.924954849557e+03 
       5.731806707029e-02       7.677342472996e+03 
       6.073618385967e-02       7.464403572026e+03 
       6.396587148575e-02       7.266202448151e+03 
       6.708504751105e-02       7.070960886805e+03 
       7.014247624661e-02       6.872451223929e+03 
       7.317125034479e-02       6.666751986487e+03 
       7.619530868356e-02       6.452933274317e+03 
       7.923290295412e-02       6.231547657311e+03 
       8.229858211522e-02       6.004856668142e+03 
       8.540439645129e-02       5.776333421322e+03 
       8.856066327078e-02       5.550278027381e+03 
       9.177647294851e-02       5.331140385834e+03 
       9.506003416760e-02       5.123338896510e+03 
       9.841891572376e-02       4.930563856106e+03 
       1.018602195604e-01       4.755336726340e+03 
       1.053907067387e-01       4.598643221983e+03 
       1.090168903624e-01       4.459727780084e+03 
       1.127451047759e-01       4.336043374611e+03 
       1.165815573988e-01       4.223297947773e+03 
       1.205323676664e-01       4.116026607248e+03 
       1.246035963037e-01       4.008103066022e+03 
       1.288012673432e-01       3.893970485452e+03 
       1.331313847507e-01       3.769630490845e+03 
       1.375999451621e-01       3.633769392863e+03 
       1.422129479912e-01       3.488067761708e+03 
       1.469764040140e-01       3.337358409414e+03 
       1.518963434312e-01       3.188222561310e+03 
       1.569788243492e-01       3.048036383534e+03 
       1.622299425773e-01       2.922465479476e+03 
       1.676558436158e-01       2.814266147059e+03 
       1.732627376934e-01       2.722246617261e+03 
       1.790569186999e-01       2.641445001374e+03 
       1.850447878547e-01       2.564916257205e+03 
       1.912328829497e-01       2.484511006033e+03 
       1.976279140121e-01       2.394884217928e+03 
       2.042368062524e-01       2.296022128679e+03 
       2.110667512060e-01       2.193091482056e+03 
       2.181252670471e-01       2.093767874968e+03 
       2.254202691720e-01       2.004528153729e+03 
       2.329601523200e-01       1.928352789789e+03 
       2.407538857476e-01       1.863129227317e+03 
       2.488111233197e-01       1.802477680389e+03 
       2.571423308483e-01       1.739568302671e+03 
       2.657589336414e-01       1.671229192112e+03 
       2.746734880605e-01       1.599287316506e+03 
       2.838998819907e-01       1.529544815770e+03 
       2.934535705922e-01       1.467280462765e+03 
       3.033518556432e-01       1.412852775638e+03 
       3.136142193800e-01       1.362413269315e+03 
       3.242627272380e-01       1.311142321358e+03 
       3.353225186673e-01       1.257453394935e+03 
       3.468224117737e-01       1.204183835616e+03 
       3.587956567431e-01       1.154797422026e+03 
       3.712808860834e-01       1.109920967389e+03 
       3.843233285913e-01       1.066713487574e+03 
       3.979763816924e-01       1.022966803807e+03 
       4.123036783515e-01       9.794610788195e+02 
       4.273818483117e-01       9.382272062356e+02 
       4.433042729285e-01       8.991833493723e+02 
       4.601862926658e-01       8.606828934368e+02 
       4.781725903542e-01       8.223319662517e+02 
       4.974479236250e-01       7.851616144134e+02 
       5.182531758990e-01       7.489414674191e+02 
       5.409101601968e-01       7.127105581313e+02 
       5.658614324745e-01       6.767706280050e+02 
       5.937371002270e-01       6.408076295966e+02 
       6.254729490068e-01       6.042204449773e+02 
       6.625325864571e-01       5.666308530342e+02 
       7.073562921492e-01       5.271042723419e+02 
       7.643426537844e-01       4.843721917489e+02 
       8.421479492992e-01       4.363367616620e+02 
       9.589157110633e-01       3.799234791514e+02 
       1.147998377871e+00       3.133765872900e+02 
       1.432416870138e+00       2.445978112678e+02 
       1.802723587393e+00       1.837922840306e+02 
       2.269488927563e+00       1.323508293538e+02 
       2.857117273382e+00       9.108897735026e+01 
       3.596897539935e+00       6.025799957351e+01 
       4.528225716644e+00       3.864018338545e+01 
       5.700698425023e+00       2.420704356390e+01 
       7.176754112236e+00       1.491041205520e+01 
       9.034998126093e+00       9.073768597172e+00 
       1.137438873645e+01       5.474847023762e+00 
