# Matter power spectrum P(k) at redshift z=1
# for k=7.87949e-06 to 12.501 h/Mpc,
# number of wavenumbers equal to 124
#    1:k (h/Mpc)              2:P (Mpc/h)^3        
       7.879490007966e-06       4.781303469659e+01 
       9.919690203007e-06       5.958756488818e+01 
       1.248815007369e-05       7.426157551281e+01 
       1.572164947407e-05       9.254905791291e+01 
       1.979238403823e-05       1.153396389059e+02 
       2.491713522571e-05       1.437418399081e+02 
       3.136881472476e-05       1.791367346083e+02 
       3.949099799486e-05       2.232446775359e+02 
       4.971622091284e-05       2.782080357596e+02 
       6.258901388555e-05       3.466935073599e+02 
       7.879490007966e-05       4.320181227070e+02 
       9.919690203007e-05       5.383032179009e+02 
       1.248815007369e-04       6.706605400130e+02 
       1.572164947407e-04       8.354129691899e+02 
       1.979238403823e-04       1.040348563280e+03 
       2.491713522571e-04       1.294998647189e+03 
       3.136881472476e-04       1.610916935472e+03 
       3.949099799486e-04       2.001917228207e+03 
       4.971622091284e-04       2.484207505792e+03 
       6.258901388555e-04       3.076348437569e+03 
       7.879490007966e-04       3.798949126572e+03 
       9.919690203007e-04       4.673799098181e+03 
       1.248815007369e-03       5.722214887627e+03 
       1.572164947407e-03       6.961717054177e+03 
       1.979238403823e-03       8.401162225019e+03 
       2.491713522571e-03       1.003435065667e+04 
       3.136881472476e-03       1.183204050952e+04 
       3.949099799486e-03       1.373153957172e+04 
       4.971622091284e-03       1.562588723291e+04 
       6.258901388555e-03       1.735547051479e+04 
       7.879490007966e-03       1.869455418067e+04 
       9.919690203007e-03       1.935817289035e+04 
       1.248815007367e-02       1.902484025079e+04 
       1.572164935498e-02       1.743530591529e+04 
       1.979229220062e-02       1.459782777362e+04 
       2.490428872226e-02       1.106538164709e+04 
       3.093721875151e-02       8.052391817687e+03 
       3.604134544012e-02       6.599708806140e+03 
       3.973987142615e-02       6.014261367588e+03 
       4.278696685680e-02       5.716230788137e+03 
       4.550623301982e-02       5.524643401200e+03 
       4.804167286482e-02       5.365967674369e+03 
       5.046939910993e-02       5.202916137665e+03 
       5.283500396141e-02       5.015422754378e+03 
       5.516841279379e-02       4.794030612951e+03 
       5.749070339207e-02       4.537012461946e+03 
       5.981759360946e-02       4.248884416402e+03 
       6.216137806475e-02       3.938547513469e+03 
       6.453207509734e-02       3.618159738112e+03 
       6.693814194916e-02       3.301519780740e+03 
       6.938693984196e-02       3.001873901316e+03 
       7.188504705855e-02       2.730872558998e+03 
       7.443847581791e-02       2.497152841062e+03 
       7.705282608377e-02       2.305871848017e+03 
       7.973339674367e-02       2.158433670191e+03 
       8.248526718292e-02       2.052527837333e+03 
       8.531335780336e-02       1.982489560172e+03 
       8.822247525679e-02       1.939416796697e+03 
       9.121734639397e-02       1.911464976657e+03 
       9.430264378285e-02       1.885216773292e+03 
       9.748300489447e-02       1.847066107163e+03 
       1.007630465537e-01       1.786192620778e+03 
       1.041473759184e-01       1.696876516035e+03 
       1.076405990279e-01       1.580523554109e+03 
       1.112473278165e-01       1.445715065826e+03 
       1.149721863923e-01       1.305897306128e+03 
       1.188198173218e-01       1.175764232974e+03 
       1.227948886222e-01       1.067562679395e+03 
       1.269021021403e-01       9.879362597679e+02 
       1.311462039822e-01       9.371248087007e+02 
       1.355319976470e-01       9.091898088745e+02 
       1.400643605118e-01       8.933027414030e+02 
       1.447482643132e-01       8.746507228459e+02 
       1.495888002683e-01       8.412504601674e+02 
       1.545912094956e-01       7.886847839457e+02 
       1.597609194119e-01       7.216116882905e+02 
       1.651035868337e-01       6.509333898390e+02 
       1.706251485775e-01       5.887806253968e+02 
       1.763318804696e-01       5.434592792612e+02 
       1.822304658378e-01       5.156174421637e+02 
       1.883280747858e-01       4.985736921329e+02 
       1.946324558693e-01       4.819929072783e+02 
       2.011520422155e-01       4.571921192091e+02 
       2.078960746971e-01       4.223589752723e+02 
       2.148747455201e-01       3.839267408345e+02 
       2.220993665805e-01       3.506178987258e+02 
       2.295825682552e-01       3.269289025248e+02 
       2.373385360490e-01       3.110139436681e+02 
       2.453832948657e-01       2.962335874529e+02 
       2.537350538611e-01       2.773637825041e+02 
       2.624146292081e-01       2.547887257492e+02 
       2.714459681868e-01       2.334357323485e+02 
       2.808568065873e-01       2.169594434542e+02 
       2.906795037080e-01       2.040884468495e+02 
       3.009521171489e-01       1.909733012857e+02 
       3.117198062088e-01       1.760801468419e+02 
       3.230366930117e-01       1.614823584212e+02 
       3.349683729413e-01       1.494118635570e+02 
       3.475953651041e-01       1.387934590963e+02 
       3.610179552248e-01       1.275672314190e+02 
       3.753631551613e-01       1.164562686829e+02 
       3.907949758132e-01       1.067441751950e+02 
       4.075300639666e-01       9.739826958402e+01 
       4.258623643105e-01       8.802418973533e+01 
       4.462036598683e-01       7.934211084714e+01 
       4.691535339448e-01       7.080510147862e+01 
       4.956272294300e-01       6.248648453107e+01 
       5.271055874450e-01       5.426320828687e+01 
       5.661625941489e-01       4.603218125010e+01 
       6.176687711226e-01       3.761025051510e+01 
       6.916352067373e-01       2.885897439030e+01 
       8.085184850168e-01       1.994135689910e+01 
       9.947183629495e-01       1.212666507424e+01 
       1.250134892195e+00       6.949401003968e+00 
       1.573785402976e+00       3.934900005078e+00 
       1.981278281012e+00       2.211873292892e+00 
       2.494281575719e+00       1.235137762865e+00 
       3.140114459843e+00       6.856011556849e-01 
       3.953169889438e+00       3.784763801381e-01 
       4.976746030954e+00       2.078767441876e-01 
       6.265352046413e+00       1.136474738395e-01 
       7.887610905066e+00       6.186277640942e-02 
       9.929913806733e+00       3.353856555429e-02 
       1.250102082822e+01       1.811384000888e-02 
