# Matter power spectrum P(k) at redshift z=1
# for k=8.63426e-06 to 10.884 h/Mpc,
# number of wavenumbers equal to 123
#    1:k (h/Mpc)              2:P (Mpc/h)^3        
       8.634259274905e-06       3.549175738391e+01 
       1.086988841320e-05       4.409775864063e+01 
       1.368437874674e-05       5.479042559798e+01 
       1.722761214889e-05       6.807573310579e+01 
       2.168827871877e-05       8.458205779485e+01 
       2.730392521713e-05       1.050900762071e+02 
       3.437360529758e-05       1.305694111810e+02 
       4.327380520410e-05       1.622240382406e+02 
       5.447849303648e-05       2.015484656080e+02 
       6.858435927987e-05       2.503967990555e+02 
       8.634259274905e-05       3.110672784756e+02 
       1.086988841320e-04       3.864047234620e+02 
       1.368437874674e-04       4.799229239127e+02 
       1.722761214889e-04       5.959473093766e+02 
       2.168827871877e-04       7.397745967841e+02 
       2.730392521713e-04       9.178391047448e+02 
       3.437360529758e-04       1.137863696058e+03 
       4.327380520410e-04       1.408957422012e+03 
       5.447849303648e-04       1.741607415122e+03 
       6.858435927987e-04       2.147509823570e+03 
       8.634259274905e-04       2.639184022123e+03 
       1.086988841320e-03       3.229225445624e+03 
       1.368437874674e-03       3.928811296422e+03 
       1.722761214889e-03       4.745121026142e+03 
       2.168827871877e-03       5.677986945794e+03 
       2.730392521713e-03       6.715629340460e+03 
       3.437360529758e-03       7.830043901512e+03 
       4.327380520410e-03       8.971941877764e+03 
       5.447849303648e-03       1.006257141665e+04 
       6.858435927987e-03       1.100843052653e+04 
       8.634259274905e-03       1.167822449106e+04 
       1.086988841320e-02       1.192518372879e+04 
       1.368437874674e-02       1.159976369993e+04 
       1.722761213025e-02       1.059553982728e+04 
       2.168825521383e-02       8.938825403141e+03 
       2.729901677108e-02       6.906427553432e+03 
       3.413961235830e-02       5.075129556434e+03 
       4.057413554665e-02       4.068628505993e+03 
       4.517795614970e-02       3.658713435829e+03 
       4.886006496637e-02       3.440849444589e+03 
       5.209493107386e-02       3.289439622760e+03 
       5.508419266134e-02       3.158545121596e+03 
       5.793034840617e-02       3.027536136100e+03 
       6.069311228081e-02       2.886694404495e+03 
       6.341087384115e-02       2.732573987485e+03 
       6.611023438458e-02       2.565759846009e+03 
       6.881076617363e-02       2.389639393410e+03 
       7.152760586842e-02       2.209537454915e+03 
       7.427296769972e-02       2.031735288613e+03 
       7.705707572892e-02       1.862377628551e+03 
       7.988876414833e-02       1.707166739406e+03 
       8.277587811846e-02       1.570350999137e+03 
       8.572554957261e-02       1.454715415234e+03 
       8.874439174437e-02       1.361104957790e+03 
       9.183863916056e-02       1.288707413719e+03 
       9.501425000753e-02       1.234772658999e+03 
       9.827698188987e-02       1.195280782405e+03 
       1.016324483667e-01       1.164849794028e+03 
       1.050861613518e-01       1.137381932426e+03 
       1.086435629773e-01       1.106678408820e+03 
       1.123100495500e-01       1.067634868617e+03 
       1.160909895792e-01       1.017190707258e+03 
       1.199917374294e-01       9.552397427904e+02 
       1.240176438619e-01       8.848408615169e+02 
       1.281740645425e-01       8.113987903863e+02 
       1.324663674689e-01       7.412191086510e+02 
       1.368999401914e-01       6.799041439135e+02 
       1.414801976535e-01       6.309496619734e+02 
       1.462125914460e-01       5.951314819859e+02 
       1.511026212494e-01       5.703724156199e+02 
       1.561558492269e-01       5.522862547009e+02 
       1.613779181220e-01       5.353127553294e+02 
       1.667745738086e-01       5.144592630745e+02 
       1.723516930430e-01       4.867699744397e+02 
       1.781153171760e-01       4.528528193748e+02 
       1.840716926070e-01       4.165774879194e+02 
       1.902273188056e-01       3.829983286949e+02 
       1.965890048025e-01       3.555484098457e+02 
       2.031639351677e-01       3.348964194042e+02 
       2.099597466674e-01       3.194443793355e+02 
       2.169846170365e-01       3.059968366673e+02 
       2.242473676423e-01       2.910664370430e+02 
       2.317575822735e-01       2.731763676424e+02 
       2.395257449037e-01       2.537039043183e+02 
       2.475634000882e-01       2.352492102665e+02 
       2.558833407291e-01       2.199024432141e+02 
       2.644998293677e-01       2.078019997628e+02 
       2.734288610488e-01       1.970755708515e+02 
       2.826884783411e-01       1.859807454135e+02 
       2.922991525178e-01       1.740422803950e+02 
       3.022842495885e-01       1.622164612291e+02 
       3.126706063657e-01       1.517999727373e+02 
       3.234892508697e-01       1.428243514965e+02 
       3.347763143953e-01       1.344475074293e+02 
       3.465742014588e-01       1.259252102304e+02 
       3.589331117638e-01       1.176253977116e+02 
       3.719130504076e-01       1.099703793190e+02 
       3.855865273687e-01       1.029613031296e+02 
       4.000422495409e-01       9.625736911835e+01 
       4.153902741292e-01       8.969901043907e+01 
       4.317693682796e-01       8.349534294956e+01 
       4.493577955687e-01       7.767803696059e+01 
       4.683896008181e-01       7.201602388853e+01 
       4.891800515497e-01       6.656450151655e+01 
       5.121669983728e-01       6.131210881185e+01 
       5.379813262990e-01       5.616893313316e+01 
       5.675737411186e-01       5.111256382565e+01 
       6.024581921032e-01       4.606623787447e+01 
       6.452154530871e-01       4.094671407607e+01 
       7.006208167979e-01       3.563132735862e+01 
       7.783117802052e-01       2.995646138001e+01 
       8.984114103138e-01       2.382088740341e+01 
       1.092701192922e+00       1.766617258404e+01 
       1.370329606590e+00       1.272957216283e+01 
       1.724992655111e+00       9.263309379264e+00 
       2.171636210905e+00       6.802084466617e+00 
       2.733928010284e+00       5.004557324627e+00 
       3.441811446162e+00       3.662157755363e+00 
       4.332983892178e+00       2.646993879203e+00 
       5.454903530757e+00       1.878584891965e+00 
       6.867316673756e+00       1.303227434787e+00 
       8.645439471429e+00       8.813485202440e-01 
       1.088396344671e+01       5.805202012542e-01 
