# Matter power spectrum P(k) at redshift z=2
# for k=1.141e-05 to 11.4217 h/Mpc,
# number of wavenumbers equal to 122
#    1:k (h/Mpc)              2:P (Mpc/h)^3        
       1.140997483013e-05       5.693753532006e+00 
       1.436430726158e-05       7.071443405208e+00 
       1.808359143443e-05       8.782480043823e+00 
       2.276589279330e-05       1.090751272305e+01 
       2.866056095967e-05       1.354669701534e+01 
       3.608150850840e-05       1.682440726877e+01 
       4.542392795710e-05       2.089507841010e+01 
       5.718533720870e-05       2.595044600056e+01 
       7.199207419405e-05       3.222851592772e+01 
       9.063265165066e-05       4.002462853915e+01 
       1.140997483013e-04       4.970509207809e+01 
       1.436430726158e-04       6.172388256065e+01 
       1.808359143443e-04       7.664292563324e+01 
       2.276589279330e-04       9.515641998725e+01 
       2.866056095967e-04       1.181193776383e+02 
       3.608150850840e-04       1.465799445038e+02 
       4.542392795710e-04       1.818138408367e+02 
       5.718533720870e-04       2.253571934235e+02 
       7.199207419405e-04       2.790311635938e+02 
       9.063265165066e-04       3.449490113678e+02 
       1.140997483013e-03       4.254953844594e+02 
       1.436430726158e-03       5.232668857356e+02 
       1.808359143443e-03       6.409462839799e+02 
       2.276589279330e-03       7.810363913301e+02 
       2.866056095967e-03       9.453807785495e+02 
       3.608150850840e-03       1.134549370736e+03 
       4.542392795710e-03       1.346979366900e+03 
       5.718533720870e-03       1.577924199859e+03 
       7.199207419405e-03       1.817137642576e+03 
       9.063265165066e-03       2.051948307968e+03 
       1.140997483013e-02       2.260529029385e+03 
       1.436430726158e-02       2.415793081162e+03 
       1.808359143440e-02       2.486186895323e+03 
       2.276589261614e-02       2.442173698267e+03 
       2.866042527516e-02       2.270327801368e+03 
       3.606263472188e-02       1.994423851968e+03 
       4.479302688626e-02       1.699473559247e+03 
       5.216846938203e-02       1.509610946036e+03 
       5.751471706676e-02       1.401773922900e+03 
       6.192105602138e-02       1.325404493579e+03 
       6.585414869137e-02       1.262744955247e+03 
       6.952180255145e-02       1.206519492875e+03 
       7.303391326153e-02       1.153252621210e+03 
       7.645633462985e-02       1.101243896688e+03 
       7.983230364159e-02       1.049754300908e+03 
       8.319228102165e-02       9.986772882384e+02 
       8.655898584181e-02       9.482918958491e+02 
       8.995019197534e-02       8.991269609817e+02 
       9.338038456484e-02       8.518247639230e+02 
       9.686179308424e-02       8.070435040961e+02 
       1.004050632241e-01       7.653560276034e+02 
       1.040197092437e-01       7.271754818380e+02 
       1.077144273507e-01       6.926894582197e+02 
       1.114973179674e-01       6.618173164751e+02 
       1.153760464049e-01       6.342190324924e+02 
       1.193579607569e-01       6.093004658221e+02 
       1.234501793675e-01       5.862824016195e+02 
       1.276596562075e-01       5.642881651096e+02 
       1.319932299430e-01       5.424585405684e+02 
       1.364576608174e-01       5.200987294548e+02 
       1.410596583816e-01       4.967882342238e+02 
       1.458059023809e-01       4.724891497842e+02 
       1.507030586244e-01       4.475537038882e+02 
       1.557577913431e-01       4.226588925059e+02 
       1.609767733315e-01       3.986412129154e+02 
       1.663666950303e-01       3.762848068249e+02 
       1.719342736209e-01       3.561345478319e+02 
       1.776862631475e-01       3.383223087005e+02 
       1.836294666499e-01       3.225831868716e+02 
       1.897707512655e-01       3.082847441179e+02 
       1.961170672477e-01       2.946141600261e+02 
       2.026754718373e-01       2.808647544772e+02 
       2.094531589173e-01       2.666485006438e+02 
       2.164574953868e-01       2.520188410925e+02 
       2.236960652038e-01       2.374807425628e+02 
       2.311767220799e-01       2.236631999530e+02 
       2.389076518784e-01       2.110876545515e+02 
       2.468974458664e-01       1.999064440429e+02 
       2.551551861407e-01       1.897870256135e+02 
       2.636905447765e-01       1.802196047089e+02 
       2.725138985868e-01       1.708461354211e+02 
       2.816364618334e-01       1.615264048517e+02 
       2.910704398475e-01       1.523348466665e+02 
       3.008292073413e-01       1.435869217020e+02 
       3.109275162753e-01       1.355417038321e+02 
       3.213817395875e-01       1.281671272769e+02 
       3.322101589922e-01       1.212723217993e+02 
       3.434333075933e-01       1.146248252470e+02 
       3.550743814622e-01       1.081321545127e+02 
       3.671597389461e-01       1.019306264621e+02 
       3.797195128106e-01       9.611018820498e+01 
       3.927883691242e-01       9.068309955623e+01 
       4.064064592246e-01       8.554475846415e+01 
       4.206206289119e-01       8.060007881579e+01 
       4.354859749764e-01       7.586711002295e+01 
       4.510678777247e-01       7.139277156775e+01 
       4.674446965887e-01       6.715657439354e+01 
       4.847114064138e-01       6.310296874267e+01 
       5.029845957088e-01       5.921984822238e+01 
       5.224094825047e-01       5.551244539904e+01 
       5.431699974632e-01       5.195805499739e+01 
       5.655036690582e-01       4.853661664773e+01 
       5.897242836868e-01       4.522983247107e+01 
       6.162576295737e-01       4.202558815254e+01 
       6.457002636509e-01       3.889526428063e+01 
       6.789209469614e-01       3.581539688536e+01 
       7.172460654306e-01       3.275301460950e+01 
       7.628221850063e-01       2.966231816139e+01 
       8.193815215482e-01       2.648332706017e+01 
       8.939885018056e-01       2.312587933436e+01 
       1.001167095752e+00       1.947292028851e+01 
       1.170581431700e+00       1.548112334189e+01 
       1.440378359505e+00       1.156973489537e+01 
       1.810266583585e+00       8.510133777542e+00 
       2.278932038720e+00       6.299761199769e+00 
       2.869005235569e+00       4.669432279678e+00 
       3.611863597512e+00       3.439461880572e+00 
       4.547066866842e+00       2.500145994786e+00 
       5.724418027795e+00       1.782924422227e+00 
       7.206615322924e+00       1.241902114970e+00 
       9.072591163054e+00       8.426085840832e-01 
       1.142171556599e+01       5.561537692507e-01 
