# Matter power spectrum P(k) at redshift z=1.5
# for k=1.16255e-05 to 11.642 h/Mpc,
# number of wavenumbers equal to 122
#    1:k (h/Mpc)              2:P (Mpc/h)^3        
       1.162554682627e-05       6.706835122445e+00 
       1.463569632560e-05       8.409444877808e+00 
       1.842525002359e-05       1.054427709493e+01 
       2.319601547336e-05       1.322105318048e+01 
       2.920205333179e-05       1.657733818040e+01 
       3.676320701596e-05       2.078561252966e+01 
       4.628213553144e-05       2.606211863155e+01 
       5.826575653263e-05       3.267794754474e+01 
       7.335224153634e-05       4.097292195795e+01 
       9.234500088216e-05       5.137295167664e+01 
       1.162554682627e-04       6.441171478016e+01 
       1.463569632560e-04       8.075766392640e+01 
       1.842525002359e-04       1.012475562713e+02 
       2.319601547336e-04       1.269278313916e+02 
       2.920205333179e-04       1.591052218986e+02 
       3.676320701596e-04       1.994077969852e+02 
       4.628213553144e-04       2.498570420405e+02 
       5.826575653263e-04       3.129503275702e+02 
       7.335224153634e-04       3.917511192438e+02 
       9.234500088216e-04       4.899817912233e+02 
       1.162554682627e-03       6.121111048461e+02 
       1.463569632560e-03       7.634214840109e+02 
       1.842525002359e-03       9.499709775978e+02 
       2.319601547336e-03       1.178557831930e+03 
       2.920205333179e-03       1.456302869980e+03 
       3.676320701596e-03       1.790001214836e+03 
       4.628213553144e-03       2.179459292236e+03 
       5.826575653263e-03       2.635007554162e+03 
       7.335224153634e-03       3.148881961490e+03 
       9.234500088216e-03       3.707356029376e+03 
       1.162554682627e-02       4.282414532530e+03 
       1.463569632560e-02       4.827413036884e+03 
       1.842525001850e-02       5.275225798724e+03 
       2.319600645217e-02       5.545940535222e+03 
       2.919956866320e-02       5.574327890846e+03 
       3.661367921040e-02       5.363945497768e+03 
       4.407387112857e-02       5.074033280174e+03 
       4.946069881222e-02       4.871975894188e+03 
       5.367530841831e-02       4.724146891852e+03 
       5.733446961916e-02       4.600471053394e+03 
       6.069351403297e-02       4.487690743153e+03 
       6.387868929243e-02       4.378832352862e+03 
       6.696210896799e-02       4.270061485187e+03 
       6.998946474852e-02       4.159198341080e+03 
       7.299206101311e-02       4.045254505536e+03 
       7.599271855927e-02       3.928125056785e+03 
       7.900894963761e-02       3.808389704512e+03 
       8.205479139577e-02       3.687201567314e+03 
       8.514192609866e-02       3.566197840304e+03 
       8.828039757465e-02       3.447010561683e+03 
       9.147908693200e-02       3.331497660864e+03 
       9.474603837187e-02       3.221216478207e+03 
       9.808868811362e-02       3.117434360687e+03 
       1.015140286373e-01       3.020816014499e+03 
       1.050287284948e-01       2.931353733361e+03 
       1.086392208242e-01       2.848370303428e+03 
       1.123517693292e-01       2.770424313391e+03 
       1.161725177309e-01       2.695620713042e+03 
       1.201075269250e-01       2.621687895246e+03 
       1.241628029157e-01       2.546448227329e+03 
       1.283443178302e-01       2.468182445548e+03 
       1.326580258053e-01       2.386033612834e+03 
       1.371098751981e-01       2.300275977198e+03 
       1.417058183453e-01       2.212348339954e+03 
       1.464518199516e-01       2.124563469964e+03 
       1.513538650904e-01       2.039626616964e+03 
       1.564179677422e-01       1.960069356260e+03 
       1.616501807591e-01       1.887357825292e+03 
       1.670566081177e-01       1.821648245849e+03 
       1.726434203125e-01       1.761598317299e+03 
       1.784168737268e-01       1.704695333182e+03 
       1.843833348145e-01       1.648109120954e+03 
       1.905493099252e-01       1.589765978410e+03 
       1.969214816123e-01       1.528633699865e+03 
       2.035067522885e-01       1.465795141336e+03 
       2.103122961344e-01       1.403848372390e+03 
       2.173456202482e-01       1.345663540253e+03 
       2.246146361404e-01       1.292730590189e+03 
       2.321277428618e-01       1.244742739738e+03 
       2.398939233099e-01       1.200068915868e+03 
       2.479228556156e-01       1.156370060973e+03 
       2.562250419985e-01       1.111841515630e+03 
       2.648119581286e-01       1.066501265306e+03 
       2.736962268945e-01       1.021884060986e+03 
       2.828918216167e-01       9.797889352837e+02 
       2.924143052557e-01       9.411526456764e+02 
       3.022811141640e-01       9.052009705416e+02 
       3.125118976143e-01       8.701934548021e+02 
       3.231289279524e-01       8.352070803919e+02 
       3.341576011590e-01       8.005394243367e+02 
       3.456270544352e-01       7.673313679117e+02 
       3.575709369912e-01       7.361661295069e+02 
       3.700283838434e-01       7.064993379268e+02 
       3.830452621304e-01       6.774282292635e+02 
       3.966757884991e-01       6.487671996136e+02 
       4.109846597228e-01       6.210755001001e+02 
       4.260499056374e-01       5.945669066833e+02 
       4.419667785923e-01       5.688192241578e+02 
       4.588531630454e-01       5.435356434344e+02 
       4.768572700225e-01       5.187952474649e+02 
       4.961688627877e-01       4.946793967383e+02 
       5.170361158258e-01       4.709254137758e+02 
       5.397917934677e-01       4.473627449304e+02 
       5.648955073966e-01       4.239652752699e+02 
       5.930050974251e-01       4.004481011315e+02 
       6.251038311042e-01       3.765791513010e+02 
       6.627418141636e-01       3.519778228579e+02 
       7.085289104242e-01       3.260853782379e+02 
       7.672243896622e-01       2.980337040005e+02 
       8.483035575907e-01       2.664729617544e+02 
       9.716392019389e-01       2.296091380060e+02 
       1.171707455959e+00       1.873897152028e+02 
       1.465909455655e+00       1.464101465153e+02 
       1.845133748278e+00       1.117425076774e+02 
       2.322883161341e+00       8.259971340903e+01 
       2.924336637129e+00       5.852547644739e+01 
       3.681521705121e+00       3.968847659931e+01 
       4.634761228649e+00       2.591306932814e+01 
       5.834818688345e+00       1.642297376179e+01 
       7.345601519968e+00       1.017915744331e+01 
       9.247564418402e+00       6.207733888752e+00 
       1.164199384353e+01       3.742136353780e+00 
