# Matter power spectrum P(k) at redshift z=0
# for k=1.00995e-05 to 10.1109 h/Mpc,
# number of wavenumbers equal to 122
#    1:k (h/Mpc)              2:P (Mpc/h)^3        
       1.009947568610e-05       4.155933446573e+01 
       1.271448658703e-05       5.211679666085e+01 
       1.600659026233e-05       6.535614426738e+01 
       2.015110323742e-05       8.195854287900e+01 
       2.536873594127e-05       1.027781559371e+02 
       3.193734634157e-05       1.288859273512e+02 
       4.020673689467e-05       1.616244321544e+02 
       5.061728280202e-05       2.026765635520e+02 
       6.372338359544e-05       2.541512325397e+02 
       8.022298693380e-05       3.186900364294e+02 
       1.009947568610e-04       3.995996859958e+02 
       1.271448658703e-04       5.010151385263e+02 
       1.600659026233e-04       6.280987228646e+02 
       2.015110323742e-04       7.872792989467e+02 
       2.536873594127e-04       9.865325509336e+02 
       3.193734634157e-04       1.235697178598e+03 
       4.020673689467e-04       1.546811210035e+03 
       5.061728280202e-04       1.934438853427e+03 
       6.372338359544e-04       2.415943909623e+03 
       8.022298693380e-04       3.011644118336e+03 
       1.009947568610e-03       3.744705753317e+03 
       1.271448658703e-03       4.640464723961e+03 
       1.600659026233e-03       5.724791330766e+03 
       2.015110323742e-03       7.021129406323e+03 
       2.536873594127e-03       8.546057780464e+03 
       3.193734634157e-03       1.030247037953e+04 
       4.020673689467e-03       1.227117905031e+04 
       5.061728280202e-03       1.440008021063e+04 
       6.372338359544e-03       1.659243812831e+04 
       8.022298693380e-03       1.869723892387e+04 
       1.009947568610e-02       2.049785428527e+04 
       1.271448658703e-02       2.171302165516e+04 
       1.600659026232e-02       2.201676915722e+04 
       2.015110317605e-02       2.110940954476e+04 
       2.536867628512e-02       1.888526648862e+04 
       3.192727022331e-02       1.568451500097e+04 
       3.980669818599e-02       1.250861569317e+04 
       4.681575703143e-02       1.064446252165e+04 
       5.184750997737e-02       9.764968285890e+03 
       5.593700720785e-02       9.231078578242e+03 
       5.956041928589e-02       8.829145283274e+03 
       6.292493399484e-02       8.475859295412e+03 
       6.613808494132e-02       8.132253130754e+03 
       6.926345421934e-02       7.777333066814e+03 
       7.234237100758e-02       7.403888549971e+03 
       7.540372234215e-02       7.011249365210e+03 
       7.846891351013e-02       6.603231693349e+03 
       8.155459827582e-02       6.188897338412e+03 
       8.467428448972e-02       5.778916836688e+03 
       8.783932961102e-02       5.384720242197e+03 
       9.105958509059e-02       5.016976527878e+03 
       9.434382849734e-02       4.684486608841e+03 
       9.770006191049e-02       4.393510318827e+03 
       1.011357229926e-01       4.146875191481e+03 
       1.046578372451e-01       3.943369422529e+03 
       1.082731295438e-01       3.778627849774e+03 
       1.119881067904e-01       3.644424855835e+03 
       1.158091196451e-01       3.530180397128e+03 
       1.197424088433e-01       3.423237293803e+03 
       1.237941400062e-01       3.311479093836e+03 
       1.279704298135e-01       3.184479093313e+03 
       1.322773657072e-01       3.036030714819e+03 
       1.367210208365e-01       2.865775212472e+03 
       1.413074656459e-01       2.679431921526e+03 
       1.460427773055e-01       2.487576476412e+03 
       1.509330480501e-01       2.302931864103e+03 
       1.559843934115e-01       2.137470409996e+03 
       1.612029612741e-01       1.998902997475e+03 
       1.665949426507e-01       1.889355088348e+03 
       1.721665850571e-01       1.804636677474e+03 
       1.779242093465e-01       1.735191859193e+03 
       1.838742308593e-01       1.669023652496e+03 
       1.900231857361e-01       1.595668299663e+03 
       1.963777632450e-01       1.508634489497e+03 
       2.029448449854e-01       1.409198292758e+03 
       2.097315518611e-01       1.305563477918e+03 
       2.167452997667e-01       1.208936857126e+03 
       2.239938650272e-01       1.126877299195e+03 
       2.314854607653e-01       1.060957472522e+03 
       2.392288255812e-01       1.007464087122e+03 
       2.472333262184e-01       9.591069482493e+02 
       2.555090762896e-01       9.079761457476e+02 
       2.640670736808e-01       8.509369113606e+02 
       2.729193599685e-01       7.911383350603e+02 
       2.820792061480e-01       7.345223554427e+02 
       2.915613302302e-01       6.859070652087e+02 
       3.013821539423e-01       6.454139898487e+02 
       3.115601079947e-01       6.086487857594e+02 
       3.221159983659e-01       5.714407456752e+02 
       3.330734501041e-01       5.327762461801e+02 
       3.444594506880e-01       4.950154566101e+02 
       3.563050226880e-01       4.611727719203e+02 
       3.686460663020e-01       4.312403577318e+02 
       3.815244278429e-01       4.031114289298e+02 
       3.949892727996e-01       3.749955366068e+02 
       4.090988754907e-01       3.477929340513e+02 
       4.239229878171e-01       3.226117692910e+02 
       4.395460275983e-01       2.993424527406e+02 
       4.560714503864e-01       2.770746061137e+02 
       4.736278692331e-01       2.554567164412e+02 
       4.923778227500e-01       2.350294890859e+02 
       5.125306733211e-01       2.157977558191e+02 
       5.343621627857e-01       1.971632926322e+02 
       5.582451143648e-01       1.792783977940e+02 
       5.846996324049e-01       1.620791558294e+02 
       6.144791896976e-01       1.453081173205e+02 
       6.487267921909e-01       1.289049387245e+02 
       6.892776140464e-01       1.126452853384e+02 
       7.392916545385e-01       9.629367025578e+01 
       8.046845041879e-01       7.952752358935e+01 
       8.975147592699e-01       6.201299850965e+01 
       1.042742902000e+00       4.387879444005e+01 
       1.276206925440e+00       2.734377592973e+01 
       1.602548085346e+00       1.590508627001e+01 
       2.017393635814e+00       9.117549600765e+00 
       2.539747671114e+00       5.185239914554e+00 
       3.197352882405e+00       2.928082206783e+00 
       4.025228794133e+00       1.642666626021e+00 
       5.067462817219e+00       9.161797165342e-01 
       6.379557713920e+00       5.082226022443e-01 
       8.031387322061e+00       2.805336464568e-01 
       1.011091759170e+01       1.541394840521e-01 
