# Matter power spectrum P(k) at redshift z=2.5
# for k=9.34594e-06 to 11.7812 h/Mpc,
# number of wavenumbers equal to 123
#    1:k (h/Mpc)              2:P (Mpc/h)^3        
       9.345943034602e-06       1.069060714438e+01 
       1.176584518344e-05       1.334908517290e+01 
       1.481232149267e-05       1.666863809209e+01 
       1.864760793479e-05       2.081363544061e+01 
       2.347594749828e-05       2.598929366409e+01 
       2.955446687153e-05       3.245181440675e+01 
       3.720686937660e-05       4.052101226259e+01 
       4.684067335150e-05       5.059603713451e+01 
       5.896891398776e-05       6.317491490830e+01 
       7.423746432509e-05       7.887875891612e+01 
       9.345943034602e-05       9.848164282969e+01 
       1.176584518344e-04       1.229471822744e+02 
       1.481232149267e-04       1.534728180772e+02 
       1.864760793479e-04       1.915423990707e+02 
       2.347594749828e-04       2.389866381515e+02 
       2.955446687153e-04       2.980488080455e+02 
       3.720686937660e-04       3.714488710612e+02 
       4.684067335150e-04       4.624323713104e+02 
       5.896891398776e-04       5.747812413567e+02 
       7.423746432509e-04       7.127560980262e+02 
       9.345943034602e-04       8.809421084990e+02 
       1.176584518344e-03       1.083983049610e+03 
       1.481232149267e-03       1.326158914547e+03 
       1.864760793479e-03       1.610620851729e+03 
       2.347594749828e-03       1.938112751032e+03 
       2.955446687153e-03       2.305478699461e+03 
       3.720686937660e-03       2.704029836412e+03 
       4.684067335150e-03       3.117845547922e+03 
       5.896891398776e-03       3.522540574232e+03 
       7.423746432509e-03       3.885063694662e+03 
       9.345943034602e-03       4.163918594025e+03 
       1.176584518344e-02       4.313089970308e+03 
       1.481232149267e-02       4.286894834755e+03 
       1.864760791560e-02       4.052282672738e+03 
       2.347592299753e-02       3.610542734368e+03 
       2.954929770089e-02       3.024902747206e+03 
       3.695828456148e-02       2.438812893326e+03 
       4.394584134471e-02       2.052549172673e+03 
       4.894562778533e-02       1.851797591476e+03 
       5.294124754625e-02       1.719146704022e+03 
       5.645006094822e-02       1.614070105247e+03 
       5.969169710852e-02       1.521848915891e+03 
       6.277768674322e-02       1.436111999007e+03 
       6.577295881164e-02       1.354029100732e+03 
       6.871923319802e-02       1.274544764498e+03 
       7.164540678152e-02       1.197612981618e+03 
       7.457273354931e-02       1.123722085475e+03 
       7.751764601384e-02       1.053634219558e+03 
       8.049340077735e-02       9.881433054218e+02 
       8.351109204583e-02       9.279307541270e+02 
       8.658030408605e-02       8.734412939334e+02 
       8.970954679887e-02       8.248175356905e+02 
       9.290655537315e-02       7.818173545048e+02 
       9.617850160473e-02       7.438645417962e+02 
       9.953214595609e-02       7.100506325513e+02 
       1.029739487365e-01       6.792437647867e+02 
       1.065101523780e-01       6.502001784054e+02 
       1.101468428335e-01       6.217389316643e+02 
       1.138899956213e-01       5.929000347384e+02 
       1.177455104278e-01       5.631169500579e+02 
       1.217192371230e-01       5.322901296026e+02 
       1.258169953375e-01       5.008317076616e+02 
       1.300445892876e-01       4.695418298032e+02 
       1.344078192195e-01       4.394220417957e+02 
       1.389124906429e-01       4.114193369587e+02 
       1.435644223858e-01       3.862028781736e+02 
       1.483694544212e-01       3.639659787521e+02 
       1.533334563589e-01       3.444096336042e+02 
       1.584623374646e-01       3.268138700613e+02 
       1.637620590464e-01       3.102847629543e+02 
       1.692386500338e-01       2.939800582393e+02 
       1.748982265681e-01       2.774085503703e+02 
       1.807470164133e-01       2.605795411137e+02 
       1.867913890019e-01       2.437905665801e+02 
       1.930378919355e-01       2.278306509936e+02 
       1.994932947881e-01       2.132366990130e+02 
       2.061646411078e-01       2.001520207431e+02 
       2.130593095913e-01       1.883730165909e+02 
       2.201850855366e-01       1.774101064247e+02 
       2.275502438618e-01       1.667712068183e+02 
       2.351636452464e-01       1.563441099187e+02 
       2.430348473176e-01       1.462889167476e+02 
       2.511742332993e-01       1.367296312507e+02 
       2.595931612071e-01       1.278105851676e+02 
       2.683041375503e-01       1.196470256480e+02 
       2.773210206641e-01       1.120622388852e+02 
       2.866592603377e-01       1.048439207390e+02 
       2.963361824443e-01       9.795584069936e+01 
       3.063713300255e-01       9.138339935694e+01 
       3.167868759835e-01       8.522346869186e+01 
       3.276081276060e-01       7.948502172026e+01 
       3.388641501695e-01       7.408450109779e+01 
       3.505885467325e-01       6.899608426982e+01 
       3.628204453128e-01       6.414205773900e+01 
       3.756057650735e-01       5.958157308517e+01 
       3.889988633323e-01       5.528963664027e+01 
       4.030647107103e-01       5.124376749469e+01 
       4.178818117961e-01       4.739216017003e+01 
       4.335461991969e-01       4.376092211653e+01 
       4.501770077364e-01       4.031938942881e+01 
       4.679244338186e-01       3.704436706246e+01 
       4.869813988728e-01       3.393324000170e+01 
       5.076011546212e-01       3.096376325169e+01 
       5.301247810753e-01       2.812015814627e+01 
       5.550258781578e-01       2.538281791012e+01 
       5.829866670446e-01       2.273293927805e+01 
       6.150348930661e-01       2.014651256253e+01 
       6.528065559307e-01       1.759779403992e+01 
       6.990891636565e-01       1.504781132030e+01 
       7.590376863264e-01       1.245328548616e+01 
       8.430507380333e-01       9.760810513483e+00 
       9.728469061567e-01       6.975197398839e+00 
       1.182866612566e+00       4.382237419360e+00 
       1.483294315233e+00       2.537256461415e+00 
       1.867189697717e+00       1.443502552444e+00 
       2.350651570882e+00       8.148784905061e-01 
       2.959294995948e+00       4.568711812976e-01 
       3.725531671394e+00       2.545619049520e-01 
       4.690166493562e+00       1.410320707469e-01 
       5.904569784291e+00       7.772933192708e-02 
       7.433412947156e+00       4.263625705501e-02 
       9.358112455534e+00       2.328396942024e-02 
       1.178116557670e+01       1.266419332191e-02 
