# Matter power spectrum P(k) at redshift z=1.5
# for k=1.13589e-05 to 11.3744 h/Mpc,
# number of wavenumbers equal to 122
#    1:k (h/Mpc)              2:P (Mpc/h)^3        
       1.135890234065e-05       6.114668701255e+00 
       1.430001080673e-05       7.636293009295e+00 
       1.800264699353e-05       9.536566941864e+00 
       2.266398977971e-05       1.190971131018e+01 
       2.853227266632e-05       1.487338688905e+01 
       3.592000311588e-05       1.857452622206e+01 
       4.522060471430e-05       2.319660172712e+01 
       5.692936841153e-05       2.896869927232e+01 
       7.166982857067e-05       3.617682890178e+01 
       9.022696844655e-05       4.517800259210e+01 
       1.135890234065e-04       5.641774214535e+01 
       1.430001080673e-04       7.045177702469e+01 
       1.800264699353e-04       8.797283518561e+01 
       2.266398977971e-04       1.098434912131e+02 
       2.853227266632e-04       1.371360273393e+02 
       3.592000311588e-04       1.711800198811e+02 
       4.522060471430e-04       2.136177450906e+02 
       5.692936841153e-04       2.664663025819e+02 
       7.166982857067e-04       3.321835430379e+02 
       9.022696844655e-04       4.137327800701e+02 
       1.135890234065e-03       5.146390703038e+02 
       1.430001080673e-03       6.390035193372e+02 
       1.800264699353e-03       7.914962150417e+02 
       2.266398977971e-03       9.772445369806e+02 
       2.853227266632e-03       1.201436793224e+03 
       3.592000311588e-03       1.468759641850e+03 
       4.522060471430e-03       1.779636606966e+03 
       5.692936841153e-03       2.138467257519e+03 
       7.166982857067e-03       2.538300692481e+03 
       9.022696844655e-03       2.965917741869e+03 
       1.135890234065e-02       3.396057113903e+03 
       1.430001080673e-02       3.788235726294e+03 
       1.800264699195e-02       4.085215728043e+03 
       2.266398607414e-02       4.220645849272e+03 
       2.853098691729e-02       4.143610430153e+03 
       3.582632385094e-02       3.867706143125e+03 
       4.353436817328e-02       3.544595681508e+03 
       4.921310913717e-02       3.339930618788e+03 
       5.357279464438e-02       3.205475472335e+03 
       5.731806707029e-02       3.101279920298e+03 
       6.073618385967e-02       3.011005523982e+03 
       6.396587148575e-02       2.926587046973e+03 
       6.708504751105e-02       2.843473938401e+03 
       7.014247624661e-02       2.759096444255e+03 
       7.317125034479e-02       2.672090506461e+03 
       7.619530868356e-02       2.582087512412e+03 
       7.923290295412e-02       2.489402463274e+03 
       8.229858211522e-02       2.394955515064e+03 
       8.540439645129e-02       2.300094928928e+03 
       8.856066327078e-02       2.206496953514e+03 
       9.177647294851e-02       2.115867552427e+03 
       9.506003416760e-02       2.029803485292e+03 
       9.841891572376e-02       1.949629960691e+03 
       1.018602195604e-01       1.876246687063e+03 
       1.053907067387e-01       1.809914287686e+03 
       1.090168903624e-01       1.750279137398e+03 
       1.127451047759e-01       1.696276601241e+03 
       1.165815573988e-01       1.646298578699e+03 
       1.205323676664e-01       1.598337895100e+03 
       1.246035963037e-01       1.550207072845e+03 
       1.288012673432e-01       1.499996094158e+03 
       1.331313847507e-01       1.446426778140e+03 
       1.375999451621e-01       1.389146951279e+03 
       1.422129479912e-01       1.328883378702e+03 
       1.469764040140e-01       1.267363898242e+03 
       1.518963434312e-01       1.206885866433e+03 
       1.569788243492e-01       1.149921299502e+03 
       1.622299425773e-01       1.098308276092e+03 
       1.676558436158e-01       1.052875934149e+03 
       1.732627376934e-01       1.013114410436e+03 
       1.790569186999e-01       9.773137288176e+02 
       1.850447878547e-01       9.431770033397e+02 
       1.912328829497e-01       9.081188929863e+02 
       1.976279140121e-01       8.705182392085e+02 
       2.042368062524e-01       8.304641969274e+02 
       2.110667512060e-01       7.896643539070e+02 
       2.181252670471e-01       7.504915680512e+02 
       2.254202691720e-01       7.148999350414e+02 
       2.329601523200e-01       6.837543136696e+02 
       2.407538857476e-01       6.563207717499e+02 
       2.488111233197e-01       6.306397291476e+02 
       2.571423308483e-01       6.046762959575e+02 
       2.657589336414e-01       5.775025406441e+02 
       2.746734880605e-01       5.497005332307e+02 
       2.838998819907e-01       5.229621713970e+02 
       2.934535705922e-01       4.987917765784e+02 
       3.033518556432e-01       4.772632723357e+02 
       3.136142193800e-01       4.572301296437e+02 
       3.242627272380e-01       4.372955284355e+02 
       3.353225186673e-01       4.170043607618e+02 
       3.468224117737e-01       3.971550646810e+02 
       3.587956567431e-01       3.787147588557e+02 
       3.712808860834e-01       3.618408505743e+02 
       3.843233285913e-01       3.457101778528e+02 
       3.979763816924e-01       3.296859245776e+02 
       4.123036783515e-01       3.139722296608e+02 
       4.273818483117e-01       2.991286108147e+02 
       4.433042729285e-01       2.851201040254e+02 
       4.601862926658e-01       2.714648932536e+02 
       4.781725903542e-01       2.580345845477e+02 
       4.974479236250e-01       2.451113540475e+02 
       5.182531758990e-01       2.326184734956e+02 
       5.409101601968e-01       2.202645131514e+02 
       5.658614324745e-01       2.081257344407e+02 
       5.937371002270e-01       1.961006229478e+02 
       6.254729490068e-01       1.840008756573e+02 
       6.625325864571e-01       1.717090793763e+02 
       7.073562921492e-01       1.589422460641e+02 
       7.643426537844e-01       1.453284486258e+02 
       8.421479492992e-01       1.302717223317e+02 
       9.589157110633e-01       1.129551539215e+02 
       1.147998377871e+00       9.313697237946e+01 
       1.432416870138e+00       7.354251224490e+01 
       1.802723587393e+00       5.704488374702e+01 
       2.269488927563e+00       4.338640198119e+01 
       2.857117273382e+00       3.207453507458e+01 
       3.596897539935e+00       2.289619653978e+01 
       4.528225716644e+00       1.573694328616e+01 
       5.700698425023e+00       1.043260860844e+01 
       7.176754112236e+00       6.704245598486e+00 
       9.034998126093e+00       4.200962336804e+00 
       1.137438873645e+01       2.580955967960e+00 
