# Matter power spectrum P(k) at redshift z=1.5
# for k=9.35415e-06 to 11.7913 h/Mpc,
# number of wavenumbers equal to 123
#    1:k (h/Mpc)              2:P (Mpc/h)^3        
       9.354145868323e-06       1.494768293148e+01 
       1.177617193926e-05       1.877340390713e+01 
       1.482532210799e-05       2.357825875294e+01 
       1.866397473979e-05       2.961279189845e+01 
       2.349655208500e-05       3.719166739081e+01 
       2.958040650936e-05       4.671001216253e+01 
       3.723952544583e-05       5.866388970741e+01 
       4.688178490691e-05       7.367607802485e+01 
       5.902067036958e-05       9.252810477011e+01 
       7.430262174939e-05       1.162003813425e+02 
       9.354145868323e-05       1.459218707478e+02 
       1.177617193926e-04       1.832314232163e+02 
       1.482532210799e-04       2.300525451502e+02 
       1.866397473979e-04       2.887829734860e+02 
       2.349655208500e-04       3.623988713953e+02 
       2.958040650936e-04       4.545701874373e+02 
       3.723952544583e-04       5.697775901898e+02 
       4.688178490691e-04       7.134118849434e+02 
       5.902067036958e-04       8.918254600026e+02 
       7.430262174939e-04       1.112298250523e+03 
       9.354145868323e-04       1.382882632134e+03 
       1.177617193926e-03       1.712073200036e+03 
       1.482532210799e-03       2.108124724275e+03 
       1.866397473979e-03       2.577713023295e+03 
       2.349655208500e-03       3.123941231127e+03 
       2.958040650936e-03       3.743883152105e+03 
       3.723952544583e-03       4.425534706106e+03 
       4.688178490691e-03       5.144436532084e+03 
       5.902067036958e-03       5.857131937328e+03 
       7.430262174939e-03       6.511954689928e+03 
       9.354145868323e-03       7.030663575178e+03 
       1.177617193926e-02       7.322809165095e+03 
       1.482532210799e-02       7.291649905999e+03 
       1.866397471847e-02       6.859207716230e+03 
       2.349652556479e-02       6.016708570217e+03 
       2.957492930110e-02       4.895467329127e+03 
       3.698086866379e-02       3.812228460061e+03 
       4.392736321859e-02       3.164917604143e+03 
       4.889731300064e-02       2.870304099733e+03 
       5.287565176896e-02       2.695548993828e+03 
       5.637235456058e-02       2.564426516693e+03 
       5.960440223691e-02       2.448972511609e+03 
       6.268221324087e-02       2.336732224240e+03 
       6.567016552234e-02       2.222039056582e+03 
       6.860967093457e-02       2.102890720284e+03 
       7.152943796887e-02       1.979667691050e+03 
       7.445059708215e-02       1.854265257107e+03 
       7.738949508998e-02       1.729519856898e+03 
       8.035932626452e-02       1.608633135214e+03 
       8.337113758084e-02       1.494770633035e+03 
       8.643447619022e-02       1.390796499504e+03 
       8.955782185290e-02       1.298668335833e+03 
       9.274888453769e-02       1.219527721186e+03 
       9.601481435365e-02       1.153447325181e+03 
       9.936235264712e-02       1.099477938583e+03 
       1.027979424981e-01       1.055646781442e+03 
       1.063278105015e-01       1.019164929042e+03 
       1.099580278005e-01       9.867210500660e+02 
       1.136945558605e-01       9.547943288683e+02 
       1.175432808684e-01       9.202122299919e+02 
       1.215100395951e-01       8.806951404057e+02 
       1.256006388585e-01       8.353507811529e+02 
       1.298208702638e-01       7.849480513055e+02 
       1.341765215876e-01       7.317595634721e+02 
       1.386733859691e-01       6.790115206421e+02 
       1.433172699392e-01       6.300429764653e+02 
       1.481140012328e-01       5.875077335404e+02 
       1.530694372774e-01       5.526469900232e+02 
       1.581894752158e-01       5.251516906888e+02 
       1.634800643022e-01       5.031919645242e+02 
       1.689472214954e-01       4.839094981319e+02 
       1.745970510646e-01       4.642497007504e+02 
       1.804357690159e-01       4.419809955142e+02 
       1.864697331529e-01       4.164767891201e+02 
       1.927054795882e-01       3.889708805379e+02 
       1.991497665543e-01       3.618096128667e+02 
       2.058096264063e-01       3.374712339408e+02 
       2.126924267918e-01       3.172206409149e+02 
       2.198059420921e-01       3.005769085517e+02 
       2.271584364235e-01       2.860763570321e+02 
       2.347587597546e-01       2.720843351730e+02 
       2.426164590651e-01       2.573404919665e+02 
       2.507419069648e-01       2.416315588984e+02 
       2.591464508602e-01       2.260520778369e+02 
       2.678425866338e-01       2.118818395678e+02 
       2.768441619669e-01       1.996080310232e+02 
       2.861666159785e-01       1.888726993382e+02 
       2.958272639001e-01       1.786523198520e+02 
       3.058456382550e-01       1.682984287314e+02 
       3.162439017196e-01       1.580395745936e+02 
       3.270473519253e-01       1.483454132264e+02 
       3.382850454967e-01       1.396246200982e+02 
       3.499905785110e-01       1.316240479532e+02 
       3.622030746825e-01       1.239136894633e+02 
       3.749684530654e-01       1.163605159923e+02 
       3.883410773520e-01       1.092268253712e+02 
       4.023859344947e-01       1.025790093554e+02 
       4.171815607020e-01       9.629266528926e+01 
       4.328240437893e-01       9.024438348376e+01 
       4.494326105373e-01       8.446409397189e+01 
       4.671576073874e-01       7.896591097766e+01 
       4.861921993867e-01       7.371002405885e+01 
       5.067900363921e-01       6.862532530227e+01 
       5.292928595555e-01       6.372873847817e+01 
       5.541753945483e-01       5.896995068485e+01 
       5.821218468514e-01       5.430770406887e+01 
       6.141636209317e-01       4.970113849951e+01 
       6.519438590062e-01       4.507952907961e+01 
       6.982649992243e-01       4.036612541434e+01 
       7.583155824141e-01       3.543770874948e+01 
       8.425726983655e-01       3.013033467408e+01 
       9.729053652045e-01       2.431771150913e+01 
       1.183700450145e+00       1.838492730166e+01 
       1.484565903366e+00       1.350974986058e+01 
       1.868800082594e+00       9.984493976047e+00 
       2.352679002150e+00       7.407291455547e+00 
       2.961847380785e+00       5.476565947439e+00 
       3.728744933526e+00       4.007050120665e+00 
       4.694211750915e+00       2.883392024213e+00 
       5.909662461569e+00       2.030343443038e+00 
       7.439824247996e+00       1.394104210474e+00 
       9.366183805084e+00       9.315774600025e-01 
       1.179132680376e+01       6.054906128554e-01 
