# Matter power spectrum P(k) at redshift z=1.5
# for k=1.14769e-05 to 11.4895 h/Mpc,
# number of wavenumbers equal to 122
#    1:k (h/Mpc)              2:P (Mpc/h)^3        
       1.147693131868e-05       8.337864422765e+00 
       1.444860048650e-05       1.038686331032e+01 
       1.818971031732e-05       1.293938981602e+01 
       2.289948855165e-05       1.611917318306e+01 
       2.882874805476e-05       2.008034324295e+01 
       3.629324351635e-05       2.501488677759e+01 
       4.569048653916e-05       3.116193568519e+01 
       5.752091458139e-05       3.881931895456e+01 
       7.241454107616e-05       4.835791771652e+01 
       9.116450594419e-05       6.023948363963e+01 
       1.147693131868e-04       7.503870908330e+01 
       1.444860048650e-04       9.347046137838e+01 
       1.818971031732e-04       1.164232220639e+02 
       2.289948855165e-04       1.449997820835e+02 
       2.882874805476e-04       1.805661103397e+02 
       3.629324351635e-04       2.248087979078e+02 
       4.569048653916e-04       2.798003581603e+02 
       5.752091458139e-04       3.480696695365e+02 
       7.241454107616e-04       4.326719919191e+02 
       9.116450594419e-04       5.372499671507e+02 
       1.147693131868e-03       6.660744169095e+02 
       1.444860048650e-03       8.240189713776e+02 
       1.818971031732e-03       1.016507856201e+03 
       2.289948855165e-03       1.249250615042e+03 
       2.882874805476e-03       1.527652980831e+03 
       3.629324351635e-03       1.855973183609e+03 
       4.569048653916e-03       2.235990983351e+03 
       5.752091458139e-03       2.660876723404e+03 
       7.241454107616e-03       3.127167223002e+03 
       9.116450594419e-03       3.611577988995e+03 
       1.147693131868e-02       4.078722736030e+03 
       1.444860048650e-02       4.475293616984e+03 
       1.818971031712e-02       4.729518664233e+03 
       2.289948778633e-02       4.762119812005e+03 
       2.882834533795e-02       4.519541951909e+03 
       3.625198094132e-02       4.034158460636e+03 
       4.465095355656e-02       3.505633407482e+03 
       5.123346855178e-02       3.188381521654e+03 
       5.612195945771e-02       3.007853865709e+03 
       6.023500371087e-02       2.882149789684e+03 
       6.394676807164e-02       2.780854263496e+03 
       6.743034703650e-02       2.690127832381e+03 
       7.077996901473e-02       2.602512511553e+03 
       7.405328540595e-02       2.513835669086e+03 
       7.728874740771e-02       2.421849411477e+03 
       8.051378519634e-02       2.325778508259e+03 
       8.374907062974e-02       2.225914769146e+03 
       8.701091911581e-02       2.123415742703e+03 
       9.031272863480e-02       2.020098257088e+03 
       9.366588550493e-02       1.918146303938e+03 
       9.708035795421e-02       1.819910269964e+03 
       1.005650982569e-01       1.727576881645e+03 
       1.041283227679e-01       1.642982798835e+03 
       1.077777113788e-01       1.567388101357e+03 
       1.115205521866e-01       1.501285339586e+03 
       1.153638479161e-01       1.444303902825e+03 
       1.193143950178e-01       1.395298487220e+03 
       1.233788428541e-01       1.352251383413e+03 
       1.275637381420e-01       1.312603304842e+03 
       1.318755583621e-01       1.273501548154e+03 
       1.363207368803e-01       1.232247741920e+03 
       1.409056818877e-01       1.186835038413e+03 
       1.456367908402e-01       1.136362613992e+03 
       1.505204617924e-01       1.081328297285e+03 
       1.555631028399e-01       1.023570379384e+03 
       1.607711407589e-01       9.658932799303e+02 
       1.661510298590e-01       9.113889074200e+02 
       1.717092620166e-01       8.627313836868e+02 
       1.774523788266e-01       8.213410875899e+02 
       1.833869867903e-01       7.871092906418e+02 
       1.895197764461e-01       7.583465553957e+02 
       1.958575463406e-01       7.324368584996e+02 
       2.024072327327e-01       7.059488457143e+02 
       2.091759459324e-01       6.764088333680e+02 
       2.161710141881e-01       6.432443258452e+02 
       2.234000360791e-01       6.079402147744e+02 
       2.308709424374e-01       5.731736201000e+02 
       2.385920689306e-01       5.416351947798e+02 
       2.465722406130e-01       5.149516017080e+02 
       2.548208699878e-01       4.929229430261e+02 
       2.633480704713e-01       4.735470735592e+02 
       2.721647876134e-01       4.542655885060e+02 
       2.812829510562e-01       4.333502949544e+02 
       2.907156510486e-01       4.108308368868e+02 
       3.004773444396e-01       3.884805755708e+02 
       3.105840965318e-01       3.683628233367e+02 
       3.210538671150e-01       3.512035354898e+02 
       3.319068515823e-01       3.361206463650e+02 
       3.431658915043e-01       3.213560173015e+02 
       3.548569737605e-01       3.058811812116e+02 
       3.670098438196e-01       2.901796817849e+02 
       3.796587678218e-01       2.755093546787e+02 
       3.928434909291e-01       2.625281299347e+02 
       4.066104578430e-01       2.505669354552e+02 
       4.210143883538e-01       2.386645735505e+02 
       4.361203409899e-01       2.266932532369e+02 
       4.520064590233e-01       2.153209216089e+02 
       4.687676883335e-01       2.048609632958e+02 
       4.865209086359e-01       1.948395035474e+02 
       5.054121689749e-01       1.848625920893e+02 
       5.256271403979e-01       1.752227448777e+02 
       5.474066381075e-01       1.660775108644e+02 
       5.710704125650e-01       1.570622387692e+02 
       5.970549752590e-01       1.481753557263e+02 
       6.259763668312e-01       1.394775108964e+02 
       6.587396870534e-01       1.307432414309e+02 
       6.967419030183e-01       1.219384765093e+02 
       7.422743691857e-01       1.128542979079e+02 
       7.993866363849e-01       1.032629172694e+02 
       8.758838987085e-01       9.276915309363e+01 
       9.879987357048e-01       8.081482590749e+01 
       1.167725322728e+00       6.700554563313e+01 
       1.447636249784e+00       5.273660833835e+01 
       1.820979398608e+00       4.056463178190e+01 
       2.292456455486e+00       3.068058602607e+01 
       2.886031633266e+00       2.266413982439e+01 
       3.633298562342e+00       1.625798187259e+01 
       4.574051888768e+00       1.128335626936e+01 
       5.758390157635e+00       7.569689458262e+00 
       7.249383700472e+00       4.920484136710e+00 
       9.126433360371e+00       3.112812076615e+00 
       1.148949887642e+01       1.926012078647e+00 
