# Matter power spectrum P(k) at redshift z=0
# for k=9.5026e-06 to 11.9786 h/Mpc,
# number of wavenumbers equal to 123
#    1:k (h/Mpc)              2:P (Mpc/h)^3        
       9.502599121193e-06       6.177083381596e+01 
       1.196306351176e-05       7.727025422636e+01 
       1.506060465787e-05       9.665863216313e+01 
       1.896017792077e-05       1.209115720946e+02 
       2.386944979660e-05       1.512493622399e+02 
       3.004985691448e-05       1.891980537533e+02 
       3.783052849042e-05       2.366659118434e+02 
       4.762581365820e-05       2.960386535673e+02 
       5.995734707168e-05       3.702977235797e+02 
       7.548182785230e-05       4.631671015551e+02 
       9.502599121193e-05       5.792941801486e+02 
       1.196306351176e-04       7.244708012658e+02 
       1.506060465787e-04       9.058997688612e+02 
       1.896017792077e-04       1.132509111814e+03 
       2.386944979660e-04       1.415309855783e+03 
       3.004985691448e-04       1.767780542985e+03 
       3.783052849042e-04       2.206242350208e+03 
       4.762581365820e-04       2.750165318408e+03 
       5.995734707168e-04       3.422326123126e+03 
       7.548182785230e-04       4.248710821932e+03 
       9.502599121193e-04       5.257937595161e+03 
       1.196306351176e-03       6.479690534564e+03 
       1.506060465787e-03       7.941620845047e+03 
       1.896017792077e-03       9.664525640678e+03 
       2.386944979660e-03       1.165528665409e+04 
       3.004985691448e-03       1.389774314036e+04 
       3.783052849042e-03       1.634237356600e+04 
       4.762581365820e-03       1.889533288280e+04 
       5.995734707168e-03       2.134526800110e+04 
       7.548182785230e-03       2.359715741424e+04 
       9.502599121193e-03       2.535188695225e+04 
       1.196306351176e-02       2.631999061582e+04 
       1.506060465786e-02       2.621442924902e+04 
       1.896017790134e-02       2.482823943527e+04 
       2.386942495647e-02       2.216192895450e+04 
       3.004461205460e-02       1.860186235641e+04 
       3.757813634723e-02       1.503243736778e+04 
       4.468456671035e-02       1.268169773735e+04 
       4.976943624088e-02       1.146271703182e+04 
       5.383280489522e-02       1.065936773398e+04 
       5.740099822735e-02       1.002382004975e+04 
       6.069743302648e-02       9.467333992509e+03 
       6.383555468519e-02       8.951243004986e+03 
       6.688140318786e-02       8.457956873149e+03 
       6.987741057772e-02       7.980215062199e+03 
       7.285296606868e-02       7.518961759788e+03 
       7.582968520324e-02       7.075755282639e+03 
       7.882427966336e-02       6.656097992365e+03 
       8.185023101152e-02       6.263761770927e+03 
       8.491882153452e-02       5.903165391351e+03 
       8.803979784424e-02       5.576918654671e+03 
       9.122181388319e-02       5.285903362627e+03 
       9.447273568766e-02       5.028481507467e+03 
       9.779985630731e-02       4.801308629359e+03 
       1.012100504546e-01       4.599207907976e+03 
       1.047098875773e-01       4.415247930754e+03 
       1.083057155354e-01       4.242309868261e+03 
       1.120037230431e-01       4.073352226600e+03 
       1.158099864971e-01       3.902692744666e+03 
       1.197305051683e-01       3.726985423554e+03 
       1.237712276595e-01       3.545407745694e+03 
       1.279380718156e-01       3.360214847065e+03 
       1.322369398005e-01       3.175846643182e+03 
       1.366737297366e-01       2.998385535737e+03 
       1.412543450940e-01       2.833197138816e+03 
       1.459847028824e-01       2.684125633444e+03 
       1.508707416093e-01       2.552437981953e+03 
       1.559184299146e-01       2.436456211176e+03 
       1.611337767580e-01       2.332098774113e+03 
       1.665228440128e-01       2.234243545582e+03 
       1.720917623067e-01       2.138015481070e+03 
       1.778467509398e-01       2.040437102225e+03 
       1.837941427058e-01       1.941453521257e+03 
       1.899404144408e-01       1.842698503065e+03 
       1.962922241374e-01       1.748604836752e+03 
       2.028564554830e-01       1.662145065373e+03 
       2.096402707347e-01       1.584321497423e+03 
       2.166511729218e-01       1.514015740119e+03 
       2.238970784983e-01       1.448503903208e+03 
       2.313864017570e-01       1.384951480633e+03 
       2.391281525866e-01       1.322708379739e+03 
       2.471320495256e-01       1.262454756311e+03 
       2.554086505737e-01       1.204969761750e+03 
       2.639695048933e-01       1.151019045646e+03 
       2.728273294292e-01       1.101301026855e+03 
       2.819962156568e-01       1.054836587029e+03 
       2.914918732335e-01       1.010451361697e+03 
       3.013319194077e-01       9.678586780716e+02 
       3.115362258276e-01       9.269783666275e+02 
       3.221273381588e-01       8.883148042963e+02 
       3.331309890716e-01       8.519246789938e+02 
       3.445767323012e-01       8.173740079742e+02 
       3.564987355131e-01       7.844501195982e+02 
       3.689367840217e-01       7.527450477040e+02 
       3.819375681846e-01       7.225453689229e+02 
       3.955563579892e-01       6.937055014041e+02 
       4.098592146015e-01       6.660800576444e+02 
       4.249259598850e-01       6.393839469309e+02 
       4.408542372217e-01       6.137004004762e+02 
       4.577651788380e-01       5.888524027835e+02 
       4.758114980518e-01       5.646761810050e+02 
       4.951893472843e-01       5.411001389930e+02 
       5.161562167419e-01       5.179520301395e+02 
       5.390588902107e-01       4.950682352248e+02 
       5.643788797886e-01       4.722391187014e+02 
       5.928097907344e-01       4.492145764932e+02 
       6.253964933913e-01       4.256532463261e+02 
       6.638021989716e-01       4.010821312569e+02 
       7.108606781101e-01       3.747600157967e+02 
       7.718122349983e-01       3.455245871994e+02 
       8.572272218887e-01       3.114283131413e+02 
       9.891833968928e-01       2.697356756038e+02 
       1.202701434938e+00       2.200778008185e+02 
       1.508158313731e+00       1.710957211680e+02 
       1.898488444320e+00       1.293364182515e+02 
       2.390054338773e+00       9.498161779640e+01 
       3.008900141722e+00       6.759380047111e+01 
       3.787980849965e+00       4.662744502674e+01 
       4.768785351411e+00       3.125756123816e+01 
       6.003545062283e+00       2.043702754176e+01 
       7.558015439759e+00       1.308357094124e+01 
       9.514977699845e+00       8.232518773877e+00 
       1.197864721899e+01       5.109018549839e+00 
