# Matter power spectrum P(k) at redshift z=2.5
# for k=1.141e-05 to 11.4217 h/Mpc,
# number of wavenumbers equal to 122
#    1:k (h/Mpc)              2:P (Mpc/h)^3        
       1.140997483013e-05       4.212623077118e+00 
       1.436430726158e-05       5.231931520423e+00 
       1.808359143443e-05       6.497872427024e+00 
       2.276589279330e-05       8.070116095701e+00 
       2.866056095967e-05       1.002276532709e+01 
       3.608150850840e-05       1.244784164196e+01 
       4.542392795710e-05       1.545960856452e+01 
       5.718533720870e-05       1.919993140322e+01 
       7.199207419405e-05       2.384491139493e+01 
       9.063265165066e-05       2.961308053967e+01 
       1.140997483013e-04       3.677549672103e+01 
       1.436430726158e-04       4.566811439194e+01 
       1.808359143443e-04       5.670682626034e+01 
       2.276589279330e-04       7.040551979818e+01 
       2.866056095967e-04       8.739730652116e+01 
       3.608150850840e-04       1.084586293441e+02 
       4.542392795710e-04       1.345350491477e+02 
       5.718533720870e-04       1.667659257018e+02 
       7.199207419405e-04       2.065028899434e+02 
       9.063265165066e-04       2.553145153892e+02 
       1.140997483013e-03       3.149685628376e+02 
       1.436430726158e-03       3.873840332220e+02 
       1.808359143443e-03       4.745386125947e+02 
       2.276589279330e-03       5.782830417094e+02 
       2.866056095967e-03       6.999870776935e+02 
       3.608150850840e-03       8.400701612028e+02 
       4.542392795710e-03       9.973763739849e+02 
       5.718533720870e-03       1.168390660062e+03 
       7.199207419405e-03       1.346372057592e+03 
       9.063265165066e-03       1.520572035522e+03 
       1.140997483013e-02       1.675451368824e+03 
       1.436430726158e-02       1.790886431707e+03 
       1.808359143440e-02       1.843467719852e+03 
       2.276589261614e-02       1.811197684799e+03 
       2.866042527516e-02       1.683950091881e+03 
       3.606263472188e-02       1.479157845223e+03 
       4.479302688626e-02       1.259800253687e+03 
       5.216846938203e-02       1.118325868499e+03 
       5.751471706676e-02       1.037845455536e+03 
       6.192105602138e-02       9.807904461489e+02 
       6.585414869137e-02       9.339458147585e+02 
       6.952180255145e-02       8.918918542659e+02 
       7.303391326153e-02       8.520416005296e+02 
       7.645633462985e-02       8.131256342295e+02 
       7.983230364159e-02       7.745933443034e+02 
       8.319228102165e-02       7.363640886784e+02 
       8.655898584181e-02       6.986454996776e+02 
       8.995019197534e-02       6.618342513734e+02 
       9.338038456484e-02       6.264063176813e+02 
       9.686179308424e-02       5.928574861492e+02 
       1.004050632241e-01       5.616163679170e+02 
       1.040197092437e-01       5.329916627064e+02 
       1.077144273507e-01       5.071254500467e+02 
       1.114973179674e-01       4.839611242040e+02 
       1.153760464049e-01       4.632447773714e+02 
       1.193579607569e-01       4.445352991379e+02 
       1.234501793675e-01       4.272520960887e+02 
       1.276596562075e-01       4.107355310855e+02 
       1.319932299430e-01       3.943477696752e+02 
       1.364576608174e-01       3.775659945149e+02 
       1.410596583816e-01       3.600764080584e+02 
       1.458059023809e-01       3.418490621418e+02 
       1.507030586244e-01       3.231477607705e+02 
       1.557577913431e-01       3.044781164488e+02 
       1.609767733315e-01       2.864666346849e+02 
       1.663666950303e-01       2.697028381535e+02 
       1.719342736209e-01       2.545963712031e+02 
       1.776862631475e-01       2.412475334917e+02 
       1.836294666499e-01       2.294587324572e+02 
       1.897707512655e-01       2.187554808245e+02 
       1.961170672477e-01       2.085283205175e+02 
       2.026754718373e-01       1.982463147111e+02 
       2.094531589173e-01       1.876169927125e+02 
       2.164574953868e-01       1.766794626108e+02 
       2.236960652038e-01       1.658136763742e+02 
       2.311767220799e-01       1.554917268556e+02 
       2.389076518784e-01       1.461064319938e+02 
       2.468974458664e-01       1.377743884370e+02 
       2.551551861407e-01       1.302451583171e+02 
       2.636905447765e-01       1.231347436811e+02 
       2.725138985868e-01       1.161731923485e+02 
       2.816364618334e-01       1.092543607374e+02 
       2.910704398475e-01       1.024340729512e+02 
       3.008292073413e-01       9.595034535161e+01 
       3.109275162753e-01       8.999918396038e+01 
       3.213817395875e-01       8.455684140529e+01 
       3.322101589922e-01       7.947911409426e+01 
       3.434333075933e-01       7.459030179639e+01 
       3.550743814622e-01       6.982018131035e+01 
       3.671597389461e-01       6.527199935250e+01 
       3.797195128106e-01       6.101431104938e+01 
       3.927883691242e-01       5.705664777286e+01 
       4.064064592246e-01       5.331995024714e+01 
       4.206206289119e-01       4.973216999842e+01 
       4.354859749764e-01       4.630720729938e+01 
       4.510678777247e-01       4.308130749867e+01 
       4.674446965887e-01       4.003924259697e+01 
       4.847114064138e-01       3.713928700359e+01 
       5.029845957088e-01       3.437281039265e+01 
       5.224094825047e-01       3.174463922252e+01 
       5.431699974632e-01       2.923842892594e+01 
       5.655036690582e-01       2.684010790539e+01 
       5.897242836868e-01       2.453730583906e+01 
       6.162576295737e-01       2.232295391457e+01 
       6.457002636509e-01       2.017807045265e+01 
       6.789209469614e-01       1.808887938466e+01 
       7.172460654306e-01       1.603628031748e+01 
       7.628221850063e-01       1.399467170491e+01 
       8.193815215482e-01       1.193365173817e+01 
       8.939885018056e-01       9.810946588783e+00 
       1.001167095752e+00       7.584139330145e+00 
       1.170581431700e+00       5.289705315923e+00 
       1.440378359505e+00       3.252817474059e+00 
       1.810266583585e+00       1.884695432117e+00 
       2.278932038720e+00       1.077457763879e+00 
       2.869005235569e+00       6.106885556446e-01 
       3.611863597512e+00       3.434625479779e-01 
       4.547066866842e+00       1.918216286656e-01 
       5.724418027795e+00       1.064508466468e-01 
       7.206615322924e+00       5.873280948056e-02 
       9.072591163054e+00       3.223321284421e-02 
       1.142171556599e+01       1.760393737737e-02 
