# Matter power spectrum P(k) at redshift z=2.5
# for k=1.03163e-05 to 10.3308 h/Mpc,
# number of wavenumbers equal to 122
#    1:k (h/Mpc)              2:P (Mpc/h)^3        
       1.031625923138e-05       4.296575981408e+00 
       1.298740090104e-05       5.385079732309e+00 
       1.635016902748e-05       6.749344014242e+00 
       2.058364327582e-05       8.459226505322e+00 
       2.591327158724e-05       1.060227883608e+01 
       3.262287610390e-05       1.328822460169e+01 
       4.106976773301e-05       1.665456739681e+01 
       5.170377425557e-05       2.087361423032e+01 
       6.509119529601e-05       2.616125746690e+01 
       8.194495984220e-05       3.278795241375e+01 
       1.031625923138e-04       4.109241044791e+01 
       1.298740090104e-04       5.149863473653e+01 
       1.635016902748e-04       6.453702224656e+01 
       2.058364327582e-04       8.087032354392e+01 
       2.591327158724e-04       1.013252337487e+02 
       3.262287610390e-04       1.269301800999e+02 
       4.106976773301e-04       1.589593075218e+02 
       5.170377425557e-04       1.989815247860e+02 
       6.509119529601e-04       2.489115990475e+02 
       8.194495984220e-04       3.110578949993e+02 
       1.031625923138e-03       3.881592271098e+02 
       1.298740090104e-03       4.834003775993e+02 
       1.635016902748e-03       6.003583511345e+02 
       2.058364327582e-03       7.429517871080e+02 
       2.591327158724e-03       9.150772309620e+02 
       3.262287610390e-03       1.120126771172e+03 
       4.106976773301e-03       1.359038633172e+03 
       5.170377425557e-03       1.633129739827e+03 
       6.509119529601e-03       1.936925244803e+03 
       8.194495984220e-03       2.259284205083e+03 
       1.031625923138e-02       2.579748810990e+03 
       1.298740090104e-02       2.866472691090e+03 
       1.635016902481e-02       3.075817170964e+03 
       2.058363789658e-02       3.159061256368e+03 
       2.591162385826e-02       3.082622518919e+03 
       3.251456462593e-02       2.864709310864e+03 
       3.931590615055e-02       2.627298653260e+03 
       4.426571738604e-02       2.479747927887e+03 
       4.810494227308e-02       2.380756517947e+03 
       5.142227507852e-02       2.302550762011e+03 
       5.445948068017e-02       2.233749845895e+03 
       5.733481499864e-02       2.168735112542e+03 
       6.011530797048e-02       2.104417414803e+03 
       6.284319095029e-02       2.039084212809e+03 
       6.554727121306e-02       1.971937362842e+03 
       6.824847471748e-02       1.902852694896e+03 
       7.096281185058e-02       1.832211833024e+03 
       7.370308318293e-02       1.760801371352e+03 
       7.647991833594e-02       1.689674101987e+03 
       7.930243866278e-02       1.620028345350e+03 
       8.217869631729e-02       1.553072961113e+03 
       8.511597443180e-02       1.489878900653e+03 
       8.812099772145e-02       1.431261369978e+03 
       9.120008340299e-02       1.377664234924e+03 
       9.435925118473e-02       1.329089171502e+03 
       9.760430446912e-02       1.285063295402e+03 
       1.009408908546e-01       1.244664854471e+03 
       1.043745474702e-01       1.206612118012e+03 
       1.079107350368e-01       1.169424798678e+03 
       1.115548634724e-01       1.131633305530e+03 
       1.153123111542e-01       1.092061858866e+03 
       1.191884394706e-01       1.050066026763e+03 
       1.231886039899e-01       1.005717374441e+03 
       1.273181633556e-01       9.598225150937e+02 
       1.315824868902e-01       9.137746304096e+02 
       1.359869617951e-01       8.692373103709e+02 
       1.405370007840e-01       8.277604474104e+02 
       1.452380509498e-01       7.903679487762e+02 
       1.500956046443e-01       7.572409211505e+02 
       1.551152131368e-01       7.276987992234e+02 
       1.603025038063e-01       7.003009523147e+02 
       1.656632016188e-01       6.734320148997e+02 
       1.712031556368e-01       6.456677921521e+02 
       1.769283713196e-01       6.162698068817e+02 
       1.828450493861e-01       5.856966779461e+02 
       1.889596320577e-01       5.553585417620e+02 
       1.952788575610e-01       5.268377847433e+02 
       2.018098238776e-01       5.011121244679e+02 
       2.085600628899e-01       4.782781480290e+02 
       2.155376262942e-01       4.575503917641e+02 
       2.227511849730e-01       4.376106669829e+02 
       2.302101439431e-01       4.173542752457e+02 
       2.379247755741e-01       3.965909591914e+02 
       2.459063745312e-01       3.759940952057e+02 
       2.541674389084e-01       3.565836372594e+02 
       2.627218833474e-01       3.390247947749e+02 
       2.715852917143e-01       3.230385623311e+02 
       2.807752192696e-01       3.077768257061e+02 
       2.903115574651e-01       2.925991384625e+02 
       3.002169788571e-01       2.775030849499e+02 
       3.105174856465e-01       2.630711843178e+02 
       3.212430937855e-01       2.496987161629e+02 
       3.324286965790e-01       2.372412429268e+02 
       3.441151690384e-01       2.251962027636e+02 
       3.563507997416e-01       2.133730912471e+02 
       3.691931752043e-01       2.019978158540e+02 
       3.827117003783e-01       1.912746030919e+02 
       3.969910308037e-01       1.810432252830e+02 
       4.121358398506e-01       1.711011713775e+02 
       4.282775893903e-01       1.614571213569e+02 
       4.455843909712e-01       1.522049571372e+02 
       4.642757867725e-01       1.432385417545e+02 
       4.846456498662e-01       1.344524594629e+02 
       5.070990528949e-01       1.258737647089e+02 
       5.322143543968e-01       1.174009769619e+02 
       5.608534341732e-01       1.089534050796e+02 
       5.943700156543e-01       1.004268905289e+02 
       6.350329567896e-01       9.166065070076e+01 
       6.869573550223e-01       8.242075794556e+01 
       7.582925281482e-01       7.236869152036e+01 
       8.661323149909e-01       6.111317911857e+01 
       1.040994290416e+00       4.886284419901e+01 
       1.300881081722e+00       3.768716945870e+01 
       1.637321482821e+00       2.898381220443e+01 
       2.061262277309e+00       2.220216725805e+01 
       2.594975456458e+00       1.679514052914e+01 
       3.266880545116e+00       1.245234574756e+01 
       4.112758935542e+00       8.995568658781e+00 
       5.177656736538e+00       6.304645434469e+00 
       6.518283639175e+00       4.277256934659e+00 
       8.206032914639e+00       2.810296622176e+00 
       1.033078336626e+01       1.793831157916e+00 
