# Matter power spectrum P(k) at redshift z=2
# for k=1.03163e-05 to 10.3308 h/Mpc,
# number of wavenumbers equal to 122
#    1:k (h/Mpc)              2:P (Mpc/h)^3        
       1.031625923138e-05       5.787394942016e+00 
       1.298740090104e-05       7.253585684557e+00 
       1.635016902748e-05       9.091219628504e+00 
       2.058364327582e-05       1.139439338868e+01 
       2.591327158724e-05       1.428103599161e+01 
       3.262287610390e-05       1.789894259265e+01 
       4.106976773301e-05       2.243332538885e+01 
       5.170377425557e-05       2.811627269554e+01 
       6.509119529601e-05       3.523857979743e+01 
       8.194495984220e-05       4.416452615961e+01 
       1.031625923138e-04       5.535031574817e+01 
       1.298740090104e-04       6.936700624522e+01 
       1.635016902748e-04       8.692890263709e+01 
       2.058364327582e-04       1.089284671654e+02 
       2.591327158724e-04       1.364787660348e+02 
       3.262287610390e-04       1.709641843531e+02 
       4.106976773301e-04       2.140993832827e+02 
       5.170377425557e-04       2.679949890309e+02 
       6.509119529601e-04       3.352261689758e+02 
       8.194495984220e-04       4.188974489318e+02 
       1.031625923138e-03       5.226946183017e+02 
       1.298740090104e-03       6.509091842377e+02 
       1.635016902748e-03       8.083649354755e+02 
       2.058364327582e-03       1.000339205660e+03 
       2.591327158724e-03       1.232074360177e+03 
       3.262287610390e-03       1.508139896767e+03 
       4.106976773301e-03       1.829271866326e+03 
       5.170377425557e-03       2.198026025538e+03 
       6.509119529601e-03       2.606652422642e+03 
       8.194495984220e-03       3.040120518870e+03 
       1.031625923138e-02       3.470796400902e+03 
       1.298740090104e-02       3.855852845376e+03 
       1.635016902481e-02       4.136499759805e+03 
       2.058363789658e-02       4.247238482524e+03 
       2.591162385826e-02       4.143026763382e+03 
       3.251456462593e-02       3.848591396656e+03 
       3.931590615055e-02       3.528302068138e+03 
       4.426571738604e-02       3.329299812897e+03 
       4.810494227308e-02       3.195826455397e+03 
       5.142227507852e-02       3.090405314060e+03 
       5.445948068017e-02       2.997699031554e+03 
       5.733481499864e-02       2.910144686135e+03 
       6.011530797048e-02       2.823588289910e+03 
       6.284319095029e-02       2.735721242418e+03 
       6.554727121306e-02       2.645469698626e+03 
       6.824847471748e-02       2.552668441378e+03 
       7.096281185058e-02       2.457824767104e+03 
       7.370308318293e-02       2.361989499771e+03 
       7.647991833594e-02       2.266576502155e+03 
       7.930243866278e-02       2.173184052256e+03 
       8.217869631729e-02       2.083436986341e+03 
       8.511597443180e-02       1.998750965026e+03 
       8.812099772145e-02       1.920238549734e+03 
       9.120008340299e-02       1.848472340067e+03 
       9.435925118473e-02       1.783457200284e+03 
       9.760430446912e-02       1.724556619663e+03 
       1.009408908546e-01       1.670537412473e+03 
       1.043745474702e-01       1.619677558895e+03 
       1.079107350368e-01       1.570001199183e+03 
       1.115548634724e-01       1.519538654897e+03 
       1.153123111542e-01       1.466719820417e+03 
       1.191884394706e-01       1.410680792664e+03 
       1.231886039899e-01       1.351516060171e+03 
       1.273181633556e-01       1.290306019294e+03 
       1.315824868902e-01       1.228910588638e+03 
       1.359869617951e-01       1.169552126701e+03 
       1.405370007840e-01       1.114298530881e+03 
       1.452380509498e-01       1.064526202306e+03 
       1.500956046443e-01       1.020464507645e+03 
       1.551152131368e-01       9.812079214452e+02 
       1.603025038063e-01       9.448243243540e+02 
       1.656632016188e-01       9.091571847180e+02 
       1.712031556368e-01       8.722998887854e+02 
       1.769283713196e-01       8.332594765906e+02 
       1.828450493861e-01       7.926473424942e+02 
       1.889596320577e-01       7.523488126755e+02 
       1.952788575610e-01       7.144788133787e+02 
       2.018098238776e-01       6.803434606228e+02 
       2.085600628899e-01       6.500719786042e+02 
       2.155376262942e-01       6.226124184927e+02 
       2.227511849730e-01       5.962007308203e+02 
       2.302101439431e-01       5.693565238968e+02 
       2.379247755741e-01       5.418234638106e+02 
       2.459063745312e-01       5.145025194243e+02 
       2.541674389084e-01       4.887576274207e+02 
       2.627218833474e-01       4.654798191473e+02 
       2.715852917143e-01       4.442950416032e+02 
       2.807752192696e-01       4.240674630516e+02 
       2.903115574651e-01       4.039387336061e+02 
       3.002169788571e-01       3.839051326403e+02 
       3.105174856465e-01       3.647468721348e+02 
       3.212430937855e-01       3.469932313480e+02 
       3.324286965790e-01       3.304505624812e+02 
       3.441151690384e-01       3.144456795400e+02 
       3.563507997416e-01       2.987228302628e+02 
       3.691931752043e-01       2.835851054080e+02 
       3.827117003783e-01       2.693053555601e+02 
       3.969910308037e-01       2.556681014538e+02 
       4.121358398506e-01       2.424036654963e+02 
       4.282775893903e-01       2.295211906563e+02 
       4.455843909712e-01       2.171456413081e+02 
       4.642757867725e-01       2.051347424098e+02 
       4.846456498662e-01       1.933452790878e+02 
       5.070990528949e-01       1.818100188122e+02 
       5.322143543968e-01       1.703904059488e+02 
       5.608534341732e-01       1.589727790696e+02 
       5.943700156543e-01       1.474076792445e+02 
       6.350329567896e-01       1.354649841228e+02 
       6.869573550223e-01       1.228032077988e+02 
       7.582925281482e-01       1.089142408768e+02 
       8.661323149909e-01       9.316395236374e+01 
       1.040994290416e+00       7.566325719739e+01 
       1.300881081722e+00       5.919175788534e+01 
       1.637321482821e+00       4.588099214049e+01 
       2.061262277309e+00       3.515864445461e+01 
       2.594975456458e+00       2.641006749352e+01 
       3.266880545116e+00       1.931013477006e+01 
       4.112758935542e+00       1.367285713355e+01 
       5.177656736538e+00       9.351558243736e+00 
       6.518283639175e+00       6.183342167664e+00 
       8.206032914639e+00       3.967421102619e+00 
       1.033078336626e+01       2.482564201301e+00 
