# Matter power spectrum P(k) at redshift z=1.5
# for k=7.90667e-06 to 12.544 h/Mpc,
# number of wavenumbers equal to 124
#    1:k (h/Mpc)              2:P (Mpc/h)^3        
       7.906674783403e-06       3.432645701094e+01 
       9.953913807619e-06       4.284471449253e+01 
       1.253123503922e-05       5.347673731462e+01 
       1.577589023204e-05       6.674681913115e+01 
       1.986066910679e-05       8.330940574228e+01 
       2.500310103377e-05       1.039809326595e+02 
       3.147703926507e-05       1.297798559697e+02 
       3.962724461885e-05       1.619762256547e+02 
       4.988774525005e-05       2.021529425780e+02 
       6.280495023240e-05       2.522811546311e+02 
       7.906674783403e-05       3.148121818112e+02 
       9.953913807619e-05       3.927879822576e+02 
       1.253123503922e-04       4.899707985709e+02 
       1.577589023204e-04       6.109891379406e+02 
       1.986066910679e-04       7.614901934882e+02 
       2.500310103377e-04       9.482756332498e+02 
       3.147703926507e-04       1.179376317376e+03 
       3.962724461884e-04       1.463993168661e+03 
       4.988774525005e-04       1.812209780463e+03 
       6.280495023240e-04       2.234398155434e+03 
       7.906674783403e-04       2.740307165760e+03 
       9.953913807619e-04       3.337798861840e+03 
       1.253123503922e-03       4.030785778905e+03 
       1.577589023204e-03       4.815767201398e+03 
       1.986066910679e-03       5.677880644892e+03 
       2.500310103377e-03       6.587552299027e+03 
       3.147703926507e-03       7.498295791199e+03 
       3.962724461885e-03       8.345606552752e+03 
       4.988774525005e-03       9.049986787865e+03 
       6.280495023240e-03       9.521484425321e+03 
       7.906674783403e-03       9.669072690227e+03 
       9.953913807619e-03       9.408628569115e+03 
       1.253123503922e-02       8.675762871291e+03 
       1.577589023198e-02       7.451526298851e+03 
       1.986066881626e-02       5.814150720892e+03 
       2.500291175902e-02       4.007871792121e+03 
       3.145396022973e-02       2.446729887523e+03 
       3.894291894359e-02       1.534186096599e+03 
       4.505934563755e-02       1.245993403542e+03 
       4.953471798373e-02       1.170559025509e+03 
       5.325702515636e-02       1.145434792392e+03 
       5.659561032660e-02       1.127301210817e+03 
       5.971764060358e-02       1.100140365357e+03 
       6.271263749726e-02       1.057503119424e+03 
       6.563473070046e-02       9.980474309126e+02 
       6.851970143356e-02       9.237082861443e+02 
       7.139289388311e-02       8.385933591326e+02 
       7.427329528523e-02       7.480821924448e+02 
       7.717581623756e-02       6.578431282256e+02 
       8.011264806950e-02       5.730668331717e+02 
       8.309411273618e-02       4.978709303260e+02 
       8.612921737730e-02       4.350157438671e+02 
       8.922602868450e-02       3.857496518026e+02 
       9.239193283161e-02       3.500473229329e+02 
       9.563382016730e-02       3.268948269003e+02 
       9.895821892018e-02       3.145216942605e+02 
       1.023713934136e-01       3.104292834565e+02 
       1.058794169893e-01       3.115477516526e+02 
       1.094882265406e-01       3.142376678626e+02 
       1.132036634495e-01       3.146872777097e+02 
       1.170315043601e-01       3.094768517085e+02 
       1.209774843157e-01       2.964762321817e+02 
       1.250473141932e-01       2.754378755361e+02 
       1.292466939666e-01       2.482624880251e+02 
       1.335813230704e-01       2.183813267981e+02 
       1.380569089562e-01       1.897313284909e+02 
       1.426791748252e-01       1.656103610148e+02 
       1.474538674484e-01       1.479356694256e+02 
       1.523867659386e-01       1.370649969310e+02 
       1.574836923131e-01       1.319791930555e+02 
       1.627505246662e-01       1.305438251603e+02 
       1.681932137615e-01       1.299474085540e+02 
       1.738178038415e-01       1.273456508434e+02 
       1.796304584533e-01       1.209322478239e+02 
       1.856374920895e-01       1.108257421908e+02 
       1.918454084582e-01       9.880705065725e+01 
       1.982609462280e-01       8.741672416554e+01 
       2.048911331511e-01       7.858778643601e+01 
       2.117433495604e-01       7.281629433097e+01 
       2.188254023826e-01       6.941919692556e+01 
       2.261456110142e-01       6.709296980175e+01 
       2.337129067032e-01       6.428514223110e+01 
       2.415369474774e-01       6.000966878579e+01 
       2.496282512052e-01       5.463895493558e+01 
       2.579983500888e-01       4.936577783334e+01 
       2.666599708470e-01       4.512802062775e+01 
       2.756272461015e-01       4.216599367833e+01 
       2.849159641508e-01       3.989128614822e+01 
       2.945438665389e-01       3.748023089286e+01 
       3.045310058148e-01       3.467513204513e+01 
       3.149001799353e-01       3.170310023612e+01 
       3.256774653328e-01       2.910209377378e+01 
       3.368928784282e-01       2.703114733362e+01 
       3.485812063233e-01       2.519507931461e+01 
       3.607830631308e-01       2.330214190088e+01 
       3.735462513571e-01       2.139701468222e+01 
       3.869275419026e-01       1.966343945087e+01 
       4.009950380856e-01       1.811878145756e+01 
       4.158313695737e-01       1.667241039674e+01 
       4.315380901519e-01       1.527758421615e+01 
       4.482418626245e-01       1.394282994943e+01 
       4.661033671014e-01       1.272297973626e+01 
       4.853304846488e-01       1.156480639825e+01 
       5.061984247628e-01       1.045660648137e+01 
       5.290815802435e-01       9.411877016014e+00 
       5.545061047127e-01       8.411736137060e+00 
       5.832410825561e-01       7.448778706686e+00 
       6.164660896985e-01       6.518394929262e+00 
       6.561008980256e-01       5.604647148958e+00 
       7.055064213529e-01       4.697156462334e+00 
       7.710934887272e-01       3.779920148815e+00 
       8.661126174530e-01       2.840452168455e+00 
       1.017281826833e+00       1.906006194447e+00 
       1.255991304373e+00       1.124509611843e+00 
       1.579224346826e+00       6.300260309257e-01 
       1.988092584264e+00       3.498213644337e-01 
       2.502860169012e+00       1.931904459094e-01 
       3.150914268890e+00       1.061632136324e-01 
       3.966766043490e+00       5.807489907616e-02 
       4.993862574792e+00       3.163504633267e-02 
       6.286900498414e+00       1.716578730703e-02 
       7.914738798874e+00       9.280062616881e-03 
       9.964065801616e+00       5.000020185391e-03 
       1.254401564244e+01       2.685139887670e-03 
