# Matter power spectrum P(k) at redshift z=2.5
# for k=8.67834e-06 to 10.9382 h/Mpc,
# number of wavenumbers equal to 123
#    1:k (h/Mpc)              2:P (Mpc/h)^3        
       8.678343241323e-06       8.325190415853e+00 
       1.092538683877e-05       1.044583098623e+01 
       1.375424712501e-05       1.310663132017e+01 
       1.731557122578e-05       1.644515965460e+01 
       2.179901263586e-05       2.063399553951e+01 
       2.744333095931e-05       2.588962614564e+01 
       3.454910672895e-05       3.248357493584e+01 
       4.349474841586e-05       4.075631058526e+01 
       5.475664406033e-05       5.113459736845e+01 
       6.893453067211e-05       6.415304513723e+01 
       8.678343241323e-05       8.048074122883e+01 
       1.092538683877e-04       1.009538281945e+02 
       1.375424712501e-04       1.266147694880e+02 
       1.731557122578e-04       1.587584606849e+02 
       2.179901263586e-04       1.989840322192e+02 
       2.744333095931e-04       2.492484575963e+02 
       3.454910672895e-04       3.119130845029e+02 
       4.349474841586e-04       3.897662893913e+02 
       5.475664406033e-04       4.859956715704e+02 
       6.893453067211e-04       6.040774179561e+02 
       8.678343241323e-04       7.475603057077e+02 
       1.092538683877e-03       9.197452352563e+02 
       1.375424712501e-03       1.123227165179e+03 
       1.731557122578e-03       1.359094317581e+03 
       2.179901263586e-03       1.625649088058e+03 
       2.744333095931e-03       1.917170885128e+03 
       3.454910672895e-03       2.222792372355e+03 
       4.349474841586e-03       2.525436867453e+03 
       5.475664406033e-03       2.801540865677e+03 
       6.893453067211e-03       3.021765011391e+03 
       8.678343241323e-03       3.151865140787e+03 
       1.092538683877e-02       3.156119616643e+03 
       1.375424712501e-02       3.001018078018e+03 
       1.731557122542e-02       2.665856492153e+03 
       2.179901145735e-02       2.163548111545e+03 
       2.744278384417e-02       1.569788710681e+03 
       3.449849801052e-02       1.031684248311e+03 
       4.233927326670e-02       7.114593330450e+02 
       4.835297372968e-02       6.032734776548e+02 
       5.286217439972e-02       5.657710989554e+02 
       5.668081945051e-02       5.475557815444e+02 
       6.013894019512e-02       5.333769368140e+02 
       6.339120174432e-02       5.171243459180e+02 
       6.652260480606e-02       4.961425373586e+02 
       6.958551336480e-02       4.696211419737e+02 
       7.261503530680e-02       4.379678263689e+02 
       7.563632095033e-02       4.024199114902e+02 
       7.866839020750e-02       3.647408259933e+02 
       8.172629936305e-02       3.269071236564e+02 
       8.482244419696e-02       2.908406824279e+02 
       8.796738274866e-02       2.581730339642e+02 
       9.117037586733e-02       2.300973322332e+02 
       9.443975419716e-02       2.072920138641e+02 
       9.778317417683e-02       1.899503707664e+02 
       1.012078006339e-01       1.778007173060e+02 
       1.047204393715e-01       1.702199927365e+02 
       1.083276347854e-01       1.662399198710e+02 
       1.120357424592e-01       1.646123887877e+02 
       1.158509835045e-01       1.638594422888e+02 
       1.197794853693e-01       1.624117543476e+02 
       1.238273125168e-01       1.588622666509e+02 
       1.280004894948e-01       1.522727426950e+02 
       1.323050183357e-01       1.424582359337e+02 
       1.367468918392e-01       1.300605608681e+02 
       1.413321040311e-01       1.163951326954e+02 
       1.460666589229e-01       1.030642184085e+02 
       1.509565785896e-01       9.151475898004e+01 
       1.560079115111e-01       8.266451656589e+01 
       1.612267420822e-01       7.679927313808e+01 
       1.666192021669e-01       7.355206916026e+01 
       1.721914855583e-01       7.203106142505e+01 
       1.779498661895e-01       7.100834975594e+01 
       1.839007209387e-01       6.922310315287e+01 
       1.900505578637e-01       6.584191678472e+01 
       1.964060507098e-01       6.079947035322e+01 
       2.029740805524e-01       5.483468704470e+01 
       2.097617854700e-01       4.908989976606e+01 
       2.167766192153e-01       4.447135941112e+01 
       2.240264199540e-01       4.127492703270e+01 
       2.315194903064e-01       3.926161911171e+01 
       2.392646901606e-01       3.783086764013e+01 
       2.472715440517e-01       3.621177802628e+01 
       2.555503653489e-01       3.391369192703e+01 
       2.641124000934e-01       3.108162737041e+01 
       2.729699941258e-01       2.825446044884e+01 
       2.821367881978e-01       2.592224051561e+01 
       2.916279471585e-01       2.424694920386e+01 
       3.014604311570e-01       2.293620247407e+01 
       3.116533192705e-01       2.159057308853e+01 
       3.222281992935e-01       2.004186124168e+01 
       3.332096419438e-01       1.839386377216e+01 
       3.446257839666e-01       1.693454789918e+01 
       3.565090533065e-01       1.574963113179e+01 
       3.688970818295e-01       1.470916028315e+01 
       3.818338687951e-01       1.363958526192e+01 
       3.953712842427e-01       1.256142265837e+01 
       4.095710402159e-01       1.156405816083e+01 
       4.245073168265e-01       1.067928713534e+01 
       4.402703222794e-01       9.851721795613e+00 
       4.569712132591e-01       9.044416473804e+00 
       4.747490442207e-01       8.273033263868e+00 
       4.937808248213e-01       7.566006711767e+00 
       5.142964861260e-01       6.890388418061e+00 
       5.366018745060e-01       6.241114900785e+00 
       5.611154117256e-01       5.627727537426e+00 
       5.884291273713e-01       5.037601011454e+00 
       6.194155700748e-01       4.467354910967e+00 
       6.554266647947e-01       3.911911857871e+00 
       6.986904630269e-01       3.363702711133e+00 
       7.531673633628e-01       2.814417704858e+00 
       8.265382782446e-01       2.254125315415e+00 
       9.348259972984e-01       1.676329272211e+00 
       1.109077554050e+00       1.106927536213e+00 
       1.377909906087e+00       6.495931062631e-01 
       1.733600424645e+00       3.671507719046e-01 
       2.182460024301e+00       2.058832337628e-01 
       2.747554353797e+00       1.147900461408e-01 
       3.458965996272e+00       6.366207484233e-02 
       4.354580191239e+00       3.513498736308e-02 
       5.482091660447e+00       1.930476408281e-02 
       6.901544501121e+00       1.056284657012e-02 
       8.688529753090e+00       5.757374368920e-03 
       1.093821089729e+01       3.126765972627e-03 
