# Matter power spectrum P(k) at redshift z=1
# for k=9.35944e-06 to 11.7986 h/Mpc,
# number of wavenumbers equal to 123
#    1:k (h/Mpc)              2:P (Mpc/h)^3        
       9.359435543475e-06       3.197998218301e+01 
       1.178283124573e-05       3.976188374514e+01 
       1.483370567813e-05       4.943734074088e+01 
       1.867452902928e-05       6.146699220973e+01 
       2.350983914824e-05       7.642353272617e+01 
       2.959713393092e-05       9.501875471218e+01 
       3.726058402191e-05       1.181373084578e+02 
       4.690829608347e-05       1.468783035703e+02 
       5.905404596345e-05       1.826067663538e+02 
       7.434463913264e-05       2.270168669398e+02 
       9.359435543475e-05       2.822090832472e+02 
       1.178283124573e-04       3.507833822107e+02 
       1.483370567813e-04       4.359497009555e+02 
       1.867452902928e-04       5.416550694779e+02 
       2.350983914824e-04       6.727224815834e+02 
       2.959713393092e-04       8.349886711915e+02 
       3.726058402191e-04       1.035414995890e+03 
       4.690829608347e-04       1.282128433316e+03 
       5.905404596345e-04       1.584335330059e+03 
       7.434463913264e-04       1.952052569531e+03 
       9.359435543475e-04       2.395611824155e+03 
       1.178283124573e-03       2.924813275143e+03 
       1.483370567813e-03       3.547351316264e+03 
       1.867452902928e-03       4.266239542291e+03 
       2.350983914824e-03       5.076649044461e+03 
       2.959713393092e-03       5.962271476401e+03 
       3.726058402191e-03       6.891884810748e+03 
       4.690829608347e-03       7.816582059072e+03 
       5.905404596345e-03       8.669058113392e+03 
       7.434463913264e-03       9.360945162574e+03 
       9.359435543475e-03       9.807084799350e+03 
       1.178283124573e-02       9.907997052951e+03 
       1.483370567813e-02       9.579921630321e+03 
       1.867452902800e-02       8.775544694484e+03 
       2.350983597288e-02       7.528040350754e+03 
       2.959597501697e-02       6.007507754622e+03 
       3.717255952314e-02       4.542862743672e+03 
       4.525550178284e-02       3.557841443572e+03 
       5.124544706636e-02       3.106307364282e+03 
       5.582497264064e-02       2.852832656188e+03 
       5.974964102087e-02       2.667460253849e+03 
       6.332677669318e-02       2.508752208366e+03 
       6.670402739888e-02       2.360305170189e+03 
       6.996401203897e-02       2.215460462698e+03 
       7.315829663511e-02       2.072084504233e+03 
       7.632180189027e-02       1.930676325888e+03 
       7.947974635808e-02       1.793031646811e+03 
       8.265133018850e-02       1.661565572599e+03 
       8.585183986194e-02       1.538823391592e+03 
       8.909392327229e-02       1.427057837701e+03 
       9.238839958169e-02       1.327688173642e+03 
       9.574479389598e-02       1.241435842083e+03 
       9.917170173139e-02       1.168155532994e+03 
       1.026770441053e-01       1.106733890277e+03 
       1.062682499757e-01       1.055349360803e+03 
       1.099523889978e-01       1.011377227604e+03 
       1.137362694238e-01       9.718974083664e+02 
       1.176265109875e-01       9.339337698695e+02 
       1.216295994950e-01       8.948591526238e+02 
       1.257519278329e-01       8.527310493789e+02 
       1.299998267969e-01       8.067687027745e+02 
       1.343795882778e-01       7.574714360073e+02 
       1.388974827655e-01       7.065518000818e+02 
       1.435597727500e-01       6.563207996194e+02 
       1.483727233406e-01       6.093040727354e+02 
       1.533426112620e-01       5.675150665263e+02 
       1.584757332759e-01       5.319617505297e+02 
       1.637784150119e-01       5.024917686854e+02 
       1.692570211446e-01       4.778156507504e+02 
       1.749179678346e-01       4.559077436095e+02 
       1.807677383248e-01       4.346273983908e+02 
       1.868129025812e-01       4.123245681744e+02 
       1.930601418526e-01       3.884515189925e+02 
       1.995162790268e-01       3.633632120487e+02 
       2.061883156638e-01       3.387129770360e+02 
       2.130834766118e-01       3.161037766853e+02 
       2.202092631495e-01       2.963327693370e+02 
       2.275735156777e-01       2.793750995296e+02 
       2.351844870976e-01       2.643094916897e+02 
       2.430509281975e-01       2.499035698548e+02 
       2.511821866198e-01       2.355187174340e+02 
       2.595883213423e-01       2.212459239350e+02 
       2.682802350927e-01       2.073421752017e+02 
       2.772698277661e-01       1.942703358534e+02 
       2.865701747843e-01       1.825252063858e+02 
       2.961957354792e-01       1.719146593043e+02 
       3.061625981004e-01       1.619391247434e+02 
       3.164887700566e-01       1.523527403834e+02 
       3.271945246887e-01       1.430510444235e+02 
       3.383028194942e-01       1.342507648799e+02 
       3.498398056536e-01       1.261168572195e+02 
       3.618354555193e-01       1.185320581911e+02 
       3.743243442389e-01       1.114286260821e+02 
       3.873466352041e-01       1.045899735266e+02 
       4.009493385050e-01       9.811855055838e+01 
       4.151879402114e-01       9.203936104452e+01 
       4.301285431659e-01       8.633821077914e+01 
       4.458507255107e-01       8.087372680958e+01 
       4.624514256927e-01       7.570894727511e+01 
       4.800503272100e-01       7.080225177673e+01 
       4.987974879456e-01       6.611572736665e+01 
       5.188844216725e-01       6.165414669531e+01 
       5.405606563327e-01       5.737119686538e+01 
       5.641592954333e-01       5.325087245464e+01 
       5.901379982097e-01       4.926161698280e+01 
       6.191476494501e-01       4.537700014728e+01 
       6.521535754197e-01       4.155702253073e+01 
       6.906630528721e-01       3.775351054793e+01 
       7.371839693657e-01       3.390968644173e+01 
       7.962255773212e-01       2.993433810235e+01 
       8.766393793671e-01       2.570941389771e+01 
       9.969679077222e-01       2.110230380595e+01 
       1.191661167987e+00       1.621855603754e+01 
       1.485897812732e+00       1.188354348647e+01 
       1.869953737606e+00       8.700892191374e+00 
       2.354125410506e+00       6.404722736313e+00 
       2.963668289766e+00       4.707200262749e+00 
       3.731037322113e+00       3.429333690608e+00 
       4.697097697160e+00       2.460353455427e+00 
       5.913295652635e+00       1.729045538492e+00 
       7.444398164554e+00       1.185851547307e+00 
       9.371942024871e+00       7.922341684900e-01 
       1.179857597297e+01       5.154307033221e-01 
