# Matter power spectrum P(k) at redshift z=0
# for k=1.06131e-05 to 10.6251 h/Mpc,
# number of wavenumbers equal to 122
#    1:k (h/Mpc)              2:P (Mpc/h)^3        
       1.061305119744e-05       3.788593910186e+01 
       1.336103984913e-05       4.736607841106e+01 
       1.682055259407e-05       5.921836448490e+01 
       2.117582110109e-05       7.403633447136e+01 
       2.665877929977e-05       9.256194826669e+01 
       3.356141470789e-05       1.157227104450e+02 
       4.225131783153e-05       1.446780066740e+02 
       5.319125769990e-05       1.808767609931e+02 
       6.696382600370e-05       2.261295991643e+02 
       8.430246222702e-05       2.826982482873e+02 
       1.061305119744e-04       3.534066260420e+02 
       1.336103984913e-04       4.417778748521e+02 
       1.682055259407e-04       5.522022377025e+02 
       2.117582110109e-04       6.901403851675e+02 
       2.665877929977e-04       8.623653278789e+02 
       3.356141470789e-04       1.077242745481e+03 
       4.225131783153e-04       1.345043431654e+03 
       5.319125769990e-04       1.678273101906e+03 
       6.696382600370e-04       2.091994518850e+03 
       8.430246222702e-04       2.604099809703e+03 
       1.061305119744e-03       3.235437281012e+03 
       1.336103984913e-03       4.009579909023e+03 
       1.682055259407e-03       4.951958286854e+03 
       2.117582110109e-03       6.087990613157e+03 
       2.665877929977e-03       7.440208108076e+03 
       3.356141470789e-03       9.023117053254e+03 
       4.225131783153e-03       1.083629213816e+04 
       5.319125769990e-03       1.279667197613e+04 
       6.696382600370e-03       1.493188122056e+04 
       8.430246222702e-03       1.709079274724e+04 
       1.061305119744e-02       1.909964547844e+04 
       1.336103984913e-02       2.071314527807e+04 
       1.682055259381e-02       2.163624192806e+04 
       2.117582017997e-02       2.157142994915e+04 
       2.665832671831e-02       2.036656282200e+04 
       3.351756565768e-02       1.822682577552e+04 
       4.120426372716e-02       1.599569144511e+04 
       4.715609265279e-02       1.464730159739e+04 
       5.159924453209e-02       1.383668899900e+04 
       5.535099794888e-02       1.324081781205e+04 
       5.874322083752e-02       1.273998819513e+04 
       6.193052983748e-02       1.228178564871e+04 
       6.499753469034e-02       1.183942059284e+04 
       6.799619698607e-02       1.139892766080e+04 
       7.096127244495e-02       1.095318427082e+04 
       7.391761188921e-02       1.050231250989e+04 
       7.688397906790e-02       1.004873124049e+04 
       7.987520748383e-02       9.598433818685e+03 
       8.290349529832e-02       9.158403688146e+03 
       8.597922176362e-02       8.736532184628e+03 
       8.911148299632e-02       8.340086196299e+03 
       9.230845537356e-02       7.974999443265e+03 
       9.557764883001e-02       7.645242606675e+03 
       9.892608740931e-02       7.351951589259e+03 
       1.023604403012e-01       7.093181375917e+03 
       1.058871182804e-01       6.864025435305e+03 
       1.095123454080e-01       6.657056260776e+03 
       1.132422126923e-01       6.462493050436e+03 
       1.170827183867e-01       6.270519383299e+03 
       1.210397982829e-01       6.071720002896e+03 
       1.251193484897e-01       5.859440157434e+03 
       1.293272426120e-01       5.631103476621e+03 
       1.336693448550e-01       5.389146891587e+03 
       1.381515203288e-01       5.140729813426e+03 
       1.427796436575e-01       4.896021526311e+03 
       1.475596068899e-01       4.665622032151e+03 
       1.524973276394e-01       4.458279165923e+03 
       1.575987583404e-01       4.277962676127e+03 
       1.628698974779e-01       4.123429205287e+03 
       1.683168036327e-01       3.987793756508e+03 
       1.739456131727e-01       3.860649808547e+03 
       1.797625624113e-01       3.731471413084e+03 
       1.857740150546e-01       3.593067282556e+03 
       1.919864957594e-01       3.444362007348e+03 
       1.984067306457e-01       3.290165027011e+03 
       2.050416956392e-01       3.140121633851e+03 
       2.118986735855e-01       3.003539682119e+03 
       2.189853211823e-01       2.884208926832e+03 
       2.263097469283e-01       2.779244730720e+03 
       2.338806015203e-01       2.681987683078e+03 
       2.417071824409e-01       2.585950951605e+03 
       2.497995549160e-01       2.486642527018e+03 
       2.581686920005e-01       2.384724250990e+03 
       2.668266373259e-01       2.285527448496e+03 
       2.757866950666e-01       2.193940315734e+03 
       2.850636530332e-01       2.111217662260e+03 
       2.946740465984e-01       2.034847056871e+03 
       3.046364735548e-01       1.960164477515e+03 
       3.149719732219e-01       1.885268646854e+03 
       3.257044875067e-01       1.811772629082e+03 
       3.368614276429e-01       1.742048159935e+03 
       3.484743787523e-01       1.677221384176e+03 
       3.605799862762e-01       1.615475688085e+03 
       3.732210854635e-01       1.555145956730e+03 
       3.864481601922e-01       1.496020618633e+03 
       4.003212548347e-01       1.439430444904e+03 
       4.149125198986e-01       1.385284170928e+03 
       4.303096610153e-01       1.332814055299e+03 
       4.466207027694e-01       1.281580747028e+03 
       4.639807119759e-01       1.231680418474e+03 
       4.825615199740e-01       1.183100757382e+03 
       5.025861764616e-01       1.135378572136e+03 
       5.243511319996e-01       1.088157241060e+03 
       5.482615596450e-01       1.041274897610e+03 
       5.748900717310e-01       9.941806699022e+02 
       6.050793946426e-01       9.463316102595e+02 
       6.401329524151e-01       8.969030403701e+02 
       6.821942035771e-01       8.446862850863e+02 
       7.350631958691e-01       7.877176498320e+02 
       8.060891000321e-01       7.227156330872e+02 
       9.105825165177e-01       6.441776485091e+02 
       1.078451394689e+00       5.455635220259e+02 
       1.338577505862e+00       4.323731878809e+02 
       1.683978615056e+00       3.256510179861e+02 
       2.119987786877e+00       2.345843648386e+02 
       2.668906459641e+00       1.620995267687e+02 
       3.359954163732e+00       1.081598108834e+02 
       4.229931679186e+00       7.019650294853e+01 
       5.325168481081e+00       4.460376692258e+01 
       6.703989922918e+00       2.789773683390e+01 
       8.439823274373e+00       1.724739121091e+01 
       1.062510799116e+01       1.057299967641e+01 
