# Matter power spectrum P(k) at redshift z=0
# for k=1.03163e-05 to 10.3308 h/Mpc,
# number of wavenumbers equal to 122
#    1:k (h/Mpc)              2:P (Mpc/h)^3        
       1.031625923138e-05       3.287750283656e+01 
       1.298740090104e-05       4.120675810723e+01 
       1.635016902748e-05       5.164612811668e+01 
       2.058364327582e-05       6.473014915816e+01 
       2.591327158724e-05       8.112876082918e+01 
       3.262287610390e-05       1.016815149423e+02 
       4.106976773301e-05       1.274405237878e+02 
       5.170377425557e-05       1.597241089200e+02 
       6.509119529601e-05       2.001839607360e+02 
       8.194495984220e-05       2.508889627617e+02 
       1.031625923138e-04       3.144296708621e+02 
       1.298740090104e-04       3.940480779638e+02 
       1.635016902748e-04       4.937979717183e+02 
       2.058364327582e-04       6.187415351221e+02 
       2.591327158724e-04       7.751875219863e+02 
       3.262287610390e-04       9.709747805057e+02 
       4.106976773301e-04       1.215801520251e+03 
       5.170377425557e-04       1.521595316421e+03 
       6.509119529601e-04       1.902911553831e+03 
       8.194495984220e-04       2.377334669560e+03 
       1.031625923138e-03       2.965817209558e+03 
       1.298740090104e-03       3.692799980843e+03 
       1.635016902748e-03       4.585683509515e+03 
       2.058364327582e-03       5.674368947576e+03 
       2.591327158724e-03       6.988593936405e+03 
       3.262287610390e-03       8.554274373771e+03 
       4.106976773301e-03       1.034119522243e+04 
       5.170377425557e-03       1.241498114636e+04 
       6.509119529601e-03       1.470678604403e+04 
       8.194495984220e-03       1.712942991110e+04 
       1.031625923138e-02       1.952578596802e+04 
       1.298740090104e-02       2.165433635110e+04 
       1.635016902481e-02       2.318813712018e+04 
       2.058363789658e-02       2.377084885181e+04 
       2.591162385826e-02       2.316785078814e+04 
       3.251456462593e-02       2.153536388162e+04 
       3.931590615055e-02       1.979753412044e+04 
       4.426571738604e-02       1.874715732869e+04 
       4.810494227308e-02       1.806324997501e+04 
       5.142227507852e-02       1.753652818093e+04 
       5.445948068017e-02       1.708024551094e+04 
       5.733481499864e-02       1.665235471931e+04 
       6.011530797048e-02       1.622786526221e+04 
       6.284319095029e-02       1.579246652979e+04 
       6.554727121306e-02       1.533907916319e+04 
       6.824847471748e-02       1.486611183167e+04 
       7.096281185058e-02       1.437579291727e+04 
       7.370308318293e-02       1.387427791576e+04 
       7.647991833594e-02       1.337031208664e+04 
       7.930243866278e-02       1.287378351797e+04 
       8.217869631729e-02       1.239604788870e+04 
       8.511597443180e-02       1.194711727020e+04 
       8.812099772145e-02       1.153544343339e+04 
       9.120008340299e-02       1.116593203188e+04 
       9.435925118473e-02       1.083997077069e+04 
       9.760430446912e-02       1.055467635492e+04 
       1.009408908546e-01       1.030207351934e+04 
       1.043745474702e-01       1.007091808099e+04 
       1.079107350368e-01       9.846592616877e+03 
       1.115548634724e-01       9.614264601119e+03 
       1.153123111542e-01       9.360617790557e+03 
       1.191884394706e-01       9.077164845320e+03 
       1.231886039899e-01       8.762849972422e+03 
       1.273181633556e-01       8.424810187991e+03 
       1.315824868902e-01       8.076909671625e+03 
       1.359869617951e-01       7.737396745712e+03 
       1.405370007840e-01       7.424220105449e+03 
       1.452380509498e-01       7.150088127611e+03 
       1.500956046443e-01       6.918379518768e+03 
       1.551152131368e-01       6.723084488421e+03 
       1.603025038063e-01       6.547877536483e+03 
       1.656632016188e-01       6.373747586371e+03 
       1.712031556368e-01       6.182419625662e+03 
       1.769283713196e-01       5.962848792761e+03 
       1.828450493861e-01       5.720138933180e+03 
       1.889596320577e-01       5.471518129391e+03 
       1.952788575610e-01       5.237948925424e+03 
       2.018098238776e-01       5.033278301502e+03 
       2.085600628899e-01       4.859771684855e+03 
       2.155376262942e-01       4.707872826213e+03 
       2.227511849730e-01       4.559939534805e+03 
       2.302101439431e-01       4.400518038226e+03 
       2.379247755741e-01       4.226533553435e+03 
       2.459063745312e-01       4.047411220851e+03 
       2.541674389084e-01       3.878231617586e+03 
       2.627218833474e-01       3.728963420069e+03 
       2.715852917143e-01       3.596192041675e+03 
       2.807752192696e-01       3.467927531206e+03 
       2.903115574651e-01       3.334898103638e+03 
       3.002169788571e-01       3.197385086471e+03 
       3.105174856465e-01       3.064234335430e+03 
       3.212430937855e-01       2.941679698819e+03 
       3.324286965790e-01       2.827883050207e+03 
       3.441151690384e-01       2.715679031575e+03 
       3.563507997416e-01       2.602476522902e+03 
       3.691931752043e-01       2.492076887916e+03 
       3.827117003783e-01       2.387596287009e+03 
       3.969910308037e-01       2.286943009940e+03 
       4.121358398506e-01       2.187535118450e+03 
       4.282775893903e-01       2.089698673845e+03 
       4.455843909712e-01       1.994981720967e+03 
       4.642757867725e-01       1.902117773778e+03 
       4.846456498662e-01       1.809937504330e+03 
       5.070990528949e-01       1.718940022760e+03 
       5.322143543968e-01       1.627986043033e+03 
       5.608534341732e-01       1.536193274408e+03 
       5.943700156543e-01       1.442318749668e+03 
       6.350329567896e-01       1.344358751775e+03 
       6.869573550223e-01       1.239123897686e+03 
       7.582925281482e-01       1.121380220368e+03 
       8.661323149909e-01       9.827625935935e+02 
       1.040994290416e+00       8.159245135355e+02 
       1.300881081722e+00       6.357565082772e+02 
       1.637321482821e+00       4.697519590330e+02 
       2.061262277309e+00       3.303978344649e+02 
       2.594975456458e+00       2.229621116374e+02 
       3.266880545116e+00       1.457675682488e+02 
       4.112758935542e+00       9.311303433976e+01 
       5.177656736538e+00       5.850229267019e+01 
       6.518283639175e+00       3.633178857549e+01 
       8.206032914639e+00       2.238079690194e+01 
       1.033078336626e+01       1.370888794307e+01 
