# Matter power spectrum P(k) at redshift z=1
# for k=1.13589e-05 to 11.3744 h/Mpc,
# number of wavenumbers equal to 122
#    1:k (h/Mpc)              2:P (Mpc/h)^3        
       1.135890234065e-05       9.260626635066e+00 
       1.430001080673e-05       1.156511671328e+01 
       1.800264699353e-05       1.444306831134e+01 
       2.266398977971e-05       1.803717794966e+01 
       2.853227266632e-05       2.252564204978e+01 
       3.592000311588e-05       2.813098553851e+01 
       4.522060471430e-05       3.513107298725e+01 
       5.692936841153e-05       4.387284568834e+01 
       7.166982857067e-05       5.478944787521e+01 
       9.022696844655e-05       6.842154147476e+01 
       1.135890234065e-04       8.544380556316e+01 
       1.430001080673e-04       1.066977711462e+02 
       1.800264699353e-04       1.332323408503e+02 
       2.266398977971e-04       1.663534406873e+02 
       2.853227266632e-04       2.076842146999e+02 
       3.592000311588e-04       2.592368113887e+02 
       4.522060471430e-04       3.234959013222e+02 
       5.692936841153e-04       4.035124038857e+02 
       7.166982857067e-04       5.030035395624e+02 
       9.022696844655e-04       6.264526371290e+02 
       1.135890234065e-03       7.791981308565e+02 
       1.430001080673e-03       9.674566516551e+02 
       1.800264699353e-03       1.198303313642e+03 
       2.266398977971e-03       1.479496364401e+03 
       2.853227266632e-03       1.818891799623e+03 
       3.592000311588e-03       2.223583935195e+03 
       4.522060471430e-03       2.692463560291e+03 
       5.692936841153e-03       3.234793340181e+03 
       7.166982857067e-03       3.838865833647e+03 
       9.022696844655e-03       4.484265528992e+03 
       1.135890234065e-02       5.132972995629e+03 
       1.430001080673e-02       5.723493426473e+03 
       1.800264699195e-02       6.169328344118e+03 
       2.266398607414e-02       6.370557950945e+03 
       2.853098691729e-02       6.251075510886e+03 
       3.582632385094e-02       5.831922443044e+03 
       4.353436817328e-02       5.343099838028e+03 
       4.921310913717e-02       5.034336325697e+03 
       5.357279464438e-02       4.832074451634e+03 
       5.731806707029e-02       4.675743854882e+03 
       6.073618385967e-02       4.540585744810e+03 
       6.396587148575e-02       4.414421861595e+03 
       6.708504751105e-02       4.290195751925e+03 
       7.014247624661e-02       4.164203005353e+03 
       7.317125034479e-02       4.034182977519e+03 
       7.619530868356e-02       3.899625511201e+03 
       7.923290295412e-02       3.760903024534e+03 
       8.229858211522e-02       3.619461063767e+03 
       8.540439645129e-02       3.477315337479e+03 
       8.856066327078e-02       3.337025290851e+03 
       9.177647294851e-02       3.201200524255e+03 
       9.506003416760e-02       3.072298663577e+03 
       9.841891572376e-02       2.952393793170e+03 
       1.018602195604e-01       2.842889517527e+03 
       1.053907067387e-01       2.744218549791e+03 
       1.090168903624e-01       2.655865173103e+03 
       1.127451047759e-01       2.576240361023e+03 
       1.165815573988e-01       2.502881963874e+03 
       1.205323676664e-01       2.432687776697e+03 
       1.246035963037e-01       2.362242591111e+03 
       1.288012673432e-01       2.288543198606e+03 
       1.331313847507e-01       2.209536633649e+03 
       1.375999451621e-01       2.124618000518e+03 
       1.422129479912e-01       2.034850961292e+03 
       1.469764040140e-01       1.942922214058e+03 
       1.518963434312e-01       1.852427345973e+03 
       1.569788243492e-01       1.767294917472e+03 
       1.622299425773e-01       1.690464571601e+03 
       1.676558436158e-01       1.623293789026e+03 
       1.732627376934e-01       1.565028764636e+03 
       1.790569186999e-01       1.512980955230e+03 
       1.850447878547e-01       1.463475757046e+03 
       1.912328829497e-01       1.412336599675e+03 
       1.976279140121e-01       1.356903081567e+03 
       2.042368062524e-01       1.297261054309e+03 
       2.110667512060e-01       1.236116398922e+03 
       2.181252670471e-01       1.177349798640e+03 
       2.254202691720e-01       1.124168393695e+03 
       2.329601523200e-01       1.078006033118e+03 
       2.407538857476e-01       1.037717777162e+03 
       2.488111233197e-01       1.000101711303e+03 
       2.571423308483e-01       9.617840349817e+02 
       2.657589336414e-01       9.212088876400e+02 
       2.746734880605e-01       8.793190756420e+02 
       2.838998819907e-01       8.389338638167e+02 
       2.934535705922e-01       8.025841881733e+02 
       3.033518556432e-01       7.704124063946e+02 
       3.136142193800e-01       7.405176882553e+02 
       3.242627272380e-01       7.105653937089e+02 
       3.353225186673e-01       6.797808492120e+02 
       3.468224117737e-01       6.495192579568e+02 
       3.587956567431e-01       6.214223931205e+02 
       3.712808860834e-01       5.957712844268e+02 
       3.843233285913e-01       5.711869295070e+02 
       3.979763816924e-01       5.465944261189e+02 
       4.123036783515e-01       5.223491113613e+02 
       4.273818483117e-01       4.994112018666e+02 
       4.433042729285e-01       4.777278032032e+02 
       4.601862926658e-01       4.564918296951e+02 
       4.781725903542e-01       4.354931167000e+02 
       4.974479236250e-01       4.152182894254e+02 
       5.182531758990e-01       3.955428529036e+02 
       5.409101601968e-01       3.759800689639e+02 
       5.658614324745e-01       3.566636958261e+02 
       5.937371002270e-01       3.374247884829e+02 
       6.254729490068e-01       3.179463727436e+02 
       6.625325864571e-01       2.980249601000e+02 
       7.073562921492e-01       2.771708229968e+02 
       7.643426537844e-01       2.547243074445e+02 
       8.421479492992e-01       2.296039854173e+02 
       9.589157110633e-01       2.002513865761e+02 
       1.147998377871e+00       1.659004929494e+02 
       1.432416870138e+00       1.309500082468e+02 
       1.802723587393e+00       1.006749915837e+02 
       2.269488927563e+00       7.513144905436e+01 
       2.857117273382e+00       5.395501196197e+01 
       3.596897539935e+00       3.716980820077e+01 
       4.528225716644e+00       2.464421996073e+01 
       5.700698425023e+00       1.582943230056e+01 
       7.176754112236e+00       9.918262926321e+00 
       9.034998126093e+00       6.098833942651e+00 
       1.137438873645e+01       3.698437125754e+00 
