# Matter power spectrum P(k) at redshift z=1.5
# for k=1.11577e-05 to 11.1691 h/Mpc,
# number of wavenumbers equal to 122
#    1:k (h/Mpc)              2:P (Mpc/h)^3        
       1.115770818184e-05       8.805516879853e+00 
       1.404672236750e-05       1.098915308201e+01 
       1.768377574087e-05       1.371428773420e+01 
       2.226255465665e-05       1.711519177231e+01 
       2.802689578871e-05       2.135941030855e+01 
       3.528377132211e-05       2.665602283752e+01 
       4.441963634134e-05       3.326589375268e+01 
       5.592100897277e-05       4.151445985039e+01 
       7.040037924900e-05       5.180765185070e+01 
       8.862882643651e-05       6.465161308493e+01 
       1.115770818184e-04       8.067714291757e+01 
       1.404672236750e-04       1.006697586251e+02 
       1.768377574087e-04       1.256064200516e+02 
       2.226255465665e-04       1.566997954749e+02 
       2.802689578871e-04       1.954505304983e+02 
       3.528377132211e-04       2.437068984472e+02 
       4.441963634134e-04       3.037291388381e+02 
       5.592100897277e-04       3.782523409614e+02 
       7.040037924900e-04       4.705371942919e+02 
       8.862882643651e-04       5.843939513676e+02 
       1.115770818184e-03       7.241631667271e+02 
       1.404672236750e-03       8.946287539819e+02 
       1.768377574087e-03       1.100795168336e+03 
       2.226255465665e-03       1.347397282782e+03 
       2.802689578871e-03       1.638075819024e+03 
       3.528377132211e-03       1.974273066957e+03 
       4.441963634134e-03       2.353673957245e+03 
       5.592100897277e-03       2.768282987624e+03 
       7.040037924900e-03       3.198285359942e+03 
       8.862882643651e-03       3.624315246923e+03 
       1.115770818184e-02       4.006106813600e+03 
       1.404672236750e-02       4.294822539698e+03 
       1.768377574084e-02       4.433335652454e+03 
       2.226255446692e-02       4.367835546956e+03 
       2.802675381251e-02       4.073250956051e+03 
       3.526439239815e-02       3.591143159792e+03 
       4.378279722277e-02       3.073006271534e+03 
       5.094365018728e-02       2.738757269016e+03 
       5.614070132440e-02       2.547125898689e+03 
       6.042976215367e-02       2.410295805227e+03 
       6.426085971861e-02       2.297409809832e+03 
       6.783485776605e-02       2.195797467929e+03 
       7.125817252600e-02       2.099441095004e+03 
       7.459465548677e-02       2.005410732600e+03 
       7.788626986844e-02       1.912447102397e+03 
       8.116260186713e-02       1.820461869529e+03 
       8.444573236778e-02       1.729920812189e+03 
       8.775294532236e-02       1.641755436570e+03 
       9.109833317515e-02       1.557135605696e+03 
       9.449379866185e-02       1.477135440628e+03 
       9.794970666635e-02       1.402734868626e+03 
       1.014753232579e-01       1.334600135116e+03 
       1.050791199429e-01       1.272999746874e+03 
       1.087689895147e-01       1.217711581533e+03 
       1.125524021200e-01       1.168074032859e+03 
       1.164365197916e-01       1.123006519326e+03 
       1.204282814309e-01       1.081104937034e+03 
       1.245344663324e-01       1.040857476613e+03 
       1.287617418623e-01       1.000792987431e+03 
       1.331166992977e-01       9.597622597007e+02 
       1.376058807713e-01       9.171535480886e+02 
       1.422357995690e-01       8.729565683706e+02 
       1.470129555536e-01       8.278813857467e+02 
       1.519438471815e-01       7.831265201007e+02 
       1.570349813725e-01       7.401351265755e+02 
       1.622928823605e-01       7.002067498918e+02 
       1.677241005681e-01       6.641967693362e+02 
       1.733352224956e-01       6.322293932052e+02 
       1.791328825812e-01       6.037604217611e+02 
       1.851237779687e-01       5.776547671340e+02 
       1.913146871064e-01       5.525385210135e+02 
       1.977124930869e-01       5.272619374688e+02 
       2.043242126405e-01       5.012727889605e+02 
       2.111570316894e-01       4.747263438371e+02 
       2.182183483929e-01       4.485580041012e+02 
       2.255158246413e-01       4.238012846642e+02 
       2.330574470240e-01       4.012638313344e+02 
       2.408515983974e-01       3.811009933952e+02 
       2.489071413395e-01       3.626938207105e+02 
       2.572335150077e-01       3.451777646082e+02 
       2.658408472427e-01       3.280085751119e+02 
       2.747400842095e-01       3.110297430036e+02 
       2.839431404677e-01       2.943979378835e+02 
       2.934630731696e-01       2.786223267045e+02 
       3.033142851452e-01       2.640862733984e+02 
       3.135127630427e-01       2.506786752319e+02 
       3.240763585542e-01       2.380709330525e+02 
       3.350251232408e-01       2.259082471016e+02 
       3.463817107995e-01       2.140725955230e+02 
       3.581718651392e-01       2.027986687813e+02 
       3.704250188304e-01       1.922043166054e+02 
       3.831750351208e-01       1.822790630278e+02 
       3.964611388788e-01       1.728512511095e+02 
       4.103290992714e-01       1.637779443887e+02 
       4.248327524191e-01       1.551021754581e+02 
       4.400359900540e-01       1.468820146864e+02 
       4.560153974772e-01       1.390693622415e+02 
       4.728638128574e-01       1.315770566576e+02 
       4.906952208487e-01       1.243896631893e+02 
       5.096516234599e-01       1.175067859955e+02 
       5.299129178382e-01       1.108834190560e+02 
       5.517114834883e-01       1.044850792588e+02 
       5.753543978063e-01       9.827732808752e+01 
       6.012584952414e-01       9.223105743996e+01 
       6.300080402013e-01       8.629188726474e+01 
       6.624543389018e-01       8.040974857797e+01 
       6.998979663354e-01       7.451391553462e+01 
       7.444453947369e-01       6.850524698361e+01 
       7.997626917936e-01       6.224653407783e+01 
       8.727966906135e-01       5.552393312481e+01 
       9.778409033610e-01       4.803258724765e+01 
       1.144040976119e+00       3.954356426012e+01 
       1.408425111753e+00       3.076169751671e+01 
       1.770231579501e+00       2.337801362638e+01 
       2.228535647673e+00       1.762102115710e+01 
       2.805559960194e+00       1.309703051432e+01 
       3.531990728098e+00       9.538984525411e+00 
       4.446512881824e+00       6.775224250439e+00 
       5.597828060798e+00       4.677070970739e+00 
       7.047247996593e+00       3.132558913910e+00 
       8.871959586127e+00       2.036592539422e+00 
       1.116913537539e+01       1.288818425423e+00 
