# Matter power spectrum P(k) at redshift z=0.5
# for k=1.14769e-05 to 11.4895 h/Mpc,
# number of wavenumbers equal to 122
#    1:k (h/Mpc)              2:P (Mpc/h)^3        
       1.147693131868e-05       2.081805412742e+01 
       1.444860048650e-05       2.593401098890e+01 
       1.818971031732e-05       3.230717376976e+01 
       2.289948855165e-05       4.024647380283e+01 
       2.882874805476e-05       5.013673334569e+01 
       3.629324351635e-05       6.245729525512e+01 
       4.569048653916e-05       7.780520355316e+01 
       5.752091458139e-05       9.692402962308e+01 
       7.241454107616e-05       1.207396991966e+02 
       9.116450594419e-05       1.504049314100e+02 
       1.147693131868e-04       1.873542614814e+02 
       1.444860048650e-04       2.333718691761e+02 
       1.818971031732e-04       2.906747612792e+02 
       2.289948855165e-04       3.620138119195e+02 
       2.882874805476e-04       4.507947948887e+02 
       3.629324351635e-04       5.612202655925e+02 
       4.569048653916e-04       6.984506211681e+02 
       5.752091458139e-04       8.687786671264e+02 
       7.241454107616e-04       1.079807041127e+03 
       9.116450594419e-04       1.340612086304e+03 
       1.147693131868e-03       1.661864013126e+03 
       1.444860048650e-03       2.055760046668e+03 
       1.818971031732e-03       2.535843797576e+03 
       2.289948855165e-03       3.116340488545e+03 
       2.882874805476e-03       3.810741809997e+03 
       3.629324351635e-03       4.629664384582e+03 
       4.569048653916e-03       5.577548684133e+03 
       5.752091458139e-03       6.624489296678e+03 
       7.241454107616e-03       7.781283018619e+03 
       9.116450594419e-03       8.981046542323e+03 
       1.147693131868e-02       1.013517328594e+04 
       1.444860048650e-02       1.111042736622e+04 
       1.818971031712e-02       1.172917578444e+04 
       2.289948778633e-02       1.179647704799e+04 
       2.882834533795e-02       1.118238440204e+04 
       3.625198094132e-02       9.970140875791e+03 
       4.465095355656e-02       8.657187393112e+03 
       5.123346855178e-02       7.872866358463e+03 
       5.612195945771e-02       7.429404941243e+03 
       6.023500371087e-02       7.122819865465e+03 
       6.394676807164e-02       6.877253049985e+03 
       6.743034703650e-02       6.658358064724e+03 
       7.077996901473e-02       6.447391441755e+03 
       7.405328540595e-02       6.233883959139e+03 
       7.728874740771e-02       6.011715088604e+03 
       8.051378519634e-02       5.779177324302e+03 
       8.374907062974e-02       5.536596506123e+03 
       8.701091911581e-02       5.286877147342e+03 
       9.031272863480e-02       5.034652735079e+03 
       9.366588550493e-02       4.785461806007e+03 
       9.708035795421e-02       4.545206456472e+03 
       1.005650982569e-01       4.319728340822e+03 
       1.041283227679e-01       4.113737459424e+03 
       1.077777113788e-01       3.930634726866e+03 
       1.115205521866e-01       3.771863696210e+03 
       1.153638479161e-01       3.636605792771e+03 
       1.193143950178e-01       3.521975322512e+03 
       1.233788428541e-01       3.423070141447e+03 
       1.275637381420e-01       3.333116350122e+03 
       1.318755583621e-01       3.244627730000e+03 
       1.363207368803e-01       3.150383310318e+03 
       1.409056818877e-01       3.044806437756e+03 
       1.456367908402e-01       2.925158926745e+03 
       1.505204617924e-01       2.792582088769e+03 
       1.555631028399e-01       2.651907899714e+03 
       1.607711407589e-01       2.510606068560e+03 
       1.661510298590e-01       2.377143775429e+03 
       1.717092620166e-01       2.258918335347e+03 
       1.774523788266e-01       2.159935534482e+03 
       1.833869867903e-01       2.080069212864e+03 
       1.895197764461e-01       2.014873071409e+03 
       1.958575463406e-01       1.957194735616e+03 
       2.024072327327e-01       1.897413613922e+03 
       2.091759459324e-01       1.828444305442e+03 
       2.161710141881e-01       1.748438693711e+03 
       2.234000360791e-01       1.661510240668e+03 
       2.308709424374e-01       1.575265405819e+03 
       2.385920689306e-01       1.497407256197e+03 
       2.465722406130e-01       1.432710707271e+03 
       2.548208699878e-01       1.380708764365e+03 
       2.633480704713e-01       1.335718872826e+03 
       2.721647876134e-01       1.290410077935e+03 
       2.812829510562e-01       1.239643214726e+03 
       2.907156510486e-01       1.183488438483e+03 
       3.004773444396e-01       1.127162132870e+03 
       3.105840965318e-01       1.076721196650e+03 
       3.210538671150e-01       1.034337942583e+03 
       3.319068515823e-01       9.974937812032e+02 
       3.431658915043e-01       9.610267008729e+02 
       3.548569737605e-01       9.219361153569e+02 
       3.670098438196e-01       8.816690629834e+02 
       3.796587678218e-01       8.439606452656e+02 
       3.928434909291e-01       8.107604336275e+02 
       4.066104578430e-01       7.801158562644e+02 
       4.210143883538e-01       7.492374582910e+02 
       4.361203409899e-01       7.177848706522e+02 
       4.520064590233e-01       6.877251025413e+02 
       4.687676883335e-01       6.599733800779e+02 
       4.865209086359e-01       6.331635954368e+02 
       5.054121689749e-01       6.061855803982e+02 
       5.256271403979e-01       5.798856513850e+02 
       5.474066381075e-01       5.546992634065e+02 
       5.710704125650e-01       5.296016357788e+02 
       5.970549752590e-01       5.045770298292e+02 
       6.259763668312e-01       4.797550900462e+02 
       6.587396870534e-01       4.544813398746e+02 
       6.967419030183e-01       4.285730234198e+02 
       7.422743691857e-01       4.013312160058e+02 
       7.993866363849e-01       3.718851878309e+02 
       8.758838987085e-01       3.387025620922e+02 
       9.879987357048e-01       2.993657848363e+02 
       1.167725322728e+00       2.513233377924e+02 
       1.447636249784e+00       1.980057097418e+02 
       1.820979398608e+00       1.493267123745e+02 
       2.292456455486e+00       1.083011034605e+02 
       2.886031633266e+00       7.532662122564e+01 
       3.633298562342e+00       5.039271453670e+01 
       4.574051888768e+00       3.263654980285e+01 
       5.758390157635e+00       2.060440936386e+01 
       7.249383700472e+00       1.275823268139e+01 
       9.126433360371e+00       7.786790385722e+00 
       1.148949887642e+01       4.702605544328e+00 
