# Matter power spectrum P(k) at redshift z=0
# for k=9.95569e-06 to 12.5506 h/Mpc,
# number of wavenumbers equal to 123
#    1:k (h/Mpc)              2:P (Mpc/h)^3        
       9.955689398840e-06       6.134571852375e+01 
       1.253347037613e-05       7.605257847627e+01 
       1.577870435448e-05       9.428507851841e+01 
       1.986421187704e-05       1.168884439157e+02 
       2.500756111727e-05       1.449103688386e+02 
       3.148265417753e-05       1.796495418850e+02 
       3.963431337482e-05       2.227156824529e+02 
       4.989664428657e-05       2.761038168651e+02 
       6.281615345562e-05       3.422859952206e+02 
       7.908085185644e-05       4.243244968131e+02 
       9.955689398840e-05       5.260110297437e+02 
       1.253347037613e-04       6.520370807303e+02 
       1.577870435448e-04       8.082009885018e+02 
       1.986421187704e-04       1.001656696812e+03 
       2.500756111727e-04       1.241207518860e+03 
       3.148265417753e-04       1.537644096385e+03 
       3.963431337482e-04       1.904118654836e+03 
       4.989664428657e-04       2.356537786047e+03 
       6.281615345562e-04       2.913944313323e+03 
       7.908085185644e-04       3.598838616440e+03 
       9.955689398840e-04       4.437327617077e+03 
       1.253347037613e-03       5.458853676537e+03 
       1.577870435448e-03       6.695062901811e+03 
       1.986421187704e-03       8.177886321001e+03 
       2.500756111727e-03       9.935839422718e+03 
       3.148265417753e-03       1.198796014623e+04 
       3.963431337482e-03       1.433536458062e+04 
       4.989664428657e-03       1.686476585987e+04 
       6.281615345562e-03       1.963155364792e+04 
       7.908085185644e-03       2.243974458117e+04 
       9.955689398840e-03       2.506746148340e+04 
       1.253347037613e-02       2.720317138371e+04 
       1.577870435300e-02       2.846070534451e+04 
       1.986420846339e-02       2.845343133444e+04 
       2.500639219217e-02       2.699352505667e+04 
       3.139840762272e-02       2.438157191259e+04 
       3.813459180048e-02       2.181462562791e+04 
       4.309016224774e-02       2.030474797835e+04 
       4.689879009199e-02       1.934324191758e+04 
       5.017270542226e-02       1.861095553266e+04 
       5.316165778373e-02       1.798388936890e+04 
       5.598642339823e-02       1.740379176656e+04 
       5.871490386907e-02       1.683823894636e+04 
       6.138962522925e-02       1.627170906781e+04 
       6.403946246123e-02       1.569418728982e+04 
       6.668531265397e-02       1.510483190491e+04 
       6.934311424291e-02       1.450790800681e+04 
       7.202557624251e-02       1.391018768335e+04 
       7.474322786896e-02       1.332059770103e+04 
       7.750508624569e-02       1.275043094703e+04 
       8.031909780139e-02       1.220975098904e+04 
       8.319243947591e-02       1.170768258413e+04 
       8.613172972064e-02       1.125059798476e+04 
       8.914317951262e-02       1.084145347510e+04 
       9.223270230618e-02       1.047904820147e+04 
       9.540599514835e-02       1.015766416160e+04 
       9.866859908606e-02       9.868126736964e+03 
       1.020259444179e-01       9.597317892595e+03 
       1.054833846890e-01       9.331617907277e+03 
       1.090462222476e-01       9.056855075416e+03 
       1.127197274665e-01       8.763226330287e+03 
       1.165091532591e-01       8.444562593406e+03 
       1.204197462011e-01       8.103373196346e+03 
       1.244567553603e-01       7.749132677245e+03 
       1.286254398003e-01       7.395835236903e+03 
       1.329310756344e-01       7.059342667343e+03 
       1.373789634519e-01       6.753695864843e+03 
       1.419744369013e-01       6.486622783316e+03 
       1.467228731970e-01       6.257949698329e+03 
       1.516297062992e-01       6.058734420909e+03 
       1.567004435071e-01       5.873796468823e+03 
       1.619406862022e-01       5.686979644625e+03 
       1.673561554739e-01       5.486608067035e+03 
       1.729527233674e-01       5.267792303320e+03 
       1.787364505121e-01       5.037117011140e+03 
       1.847136309246e-01       4.809812670032e+03 
       1.908908448442e-01       4.600930827222e+03 
       1.972750205607e-01       4.418136356653e+03 
       2.038735063462e-01       4.258805518323e+03 
       2.106941538189e-01       4.113606804026e+03 
       2.177454143716e-01       3.970637330745e+03 
       2.250364507085e-01       3.820720731054e+03 
       2.325772660869e-01       3.664501262135e+03 
       2.403788545930e-01       3.510400763174e+03 
       2.484533767516e-01       3.367304136209e+03 
       2.568143660538e-01       3.239241275845e+03 
       2.654769736861e-01       3.122179241118e+03 
       2.744582610259e-01       3.007794678519e+03 
       2.837775525304e-01       2.892103193364e+03 
       2.934568658326e-01       2.776874784879e+03 
       3.035214416269e-01       2.667319933092e+03 
       3.140004040025e-01       2.565880819744e+03 
       3.249275933560e-01       2.469901462084e+03 
       3.363426305745e-01       2.375798395865e+03 
       3.482922955247e-01       2.282966072593e+03 
       3.608323393540e-01       2.193764967533e+03 
       3.740299059040e-01       2.108855528928e+03 
       3.879668249096e-01       2.026624090206e+03 
       4.027441799942e-01       1.946174980158e+03 
       4.184887864013e-01       1.867659911159e+03 
       4.353626090637e-01       1.791413418738e+03 
       4.535768511791e-01       1.716559695544e+03 
       4.734137313677e-01       1.642473401790e+03 
       4.952614498559e-01       1.569059837657e+03 
       5.196728850500e-01       1.495366097799e+03 
       5.474694222039e-01       1.420582795351e+03 
       5.799363097041e-01       1.343397053755e+03 
       6.192176157164e-01       1.261841042115e+03 
       6.691805271096e-01       1.172746211865e+03 
       7.374406015049e-01       1.070729955215e+03 
       8.399619637213e-01       9.469470891842e+02 
       1.006006156226e+00       7.926966339111e+02 
       1.255459616701e+00       6.219983825486e+02 
       1.580035378866e+00       4.644044687111e+02 
       1.989141986260e+00       3.313115204395e+02 
       2.504181386473e+00       2.269780774042e+02 
       3.152577583172e+00       1.504859159230e+02 
       3.968860032107e+00       9.728655055001e+01 
       4.996498750274e+00       6.172120782501e+01 
       6.290219246718e+00       3.862164096526e+01 
       7.918916855450e+00       2.392709361695e+01 
       9.969325663211e+00       1.471698494312e+01 
       1.255063741587e+01       9.005086727385e+00 
