# Matter power spectrum P(k) at redshift z=1
# for k=1.00995e-05 to 10.1109 h/Mpc,
# number of wavenumbers equal to 122
#    1:k (h/Mpc)              2:P (Mpc/h)^3        
       1.009947568610e-05       1.580523653456e+01 
       1.271448658703e-05       1.982029912430e+01 
       1.600659026233e-05       2.485529972384e+01 
       2.015110323742e-05       3.116930570232e+01 
       2.536873594127e-05       3.908715579241e+01 
       3.193734634157e-05       4.901615687728e+01 
       4.020673689467e-05       6.146694662996e+01 
       5.061728280202e-05       7.707961962352e+01 
       6.372338359544e-05       9.665636006671e+01 
       8.022298693380e-05       1.212020964485e+02 
       1.009947568610e-04       1.519750097493e+02 
       1.271448658703e-04       1.905488507270e+02 
       1.600659026233e-04       2.388892003850e+02 
       2.015110323742e-04       2.994453631063e+02 
       2.536873594127e-04       3.752585307057e+02 
       3.193734634157e-04       4.700842816810e+02 
       4.020673689467e-04       5.885227571043e+02 
       5.061728280202e-04       7.361425890196e+02 
       6.372338359544e-04       9.195762358742e+02 
       8.022298693380e-04       1.146558292439e+03 
       1.009947568610e-03       1.425872228580e+03 
       1.271448658703e-03       1.767130871812e+03 
       1.600659026233e-03       2.180200745156e+03 
       2.015110323742e-03       2.674013400818e+03 
       2.536873594127e-03       3.254881194487e+03 
       3.193734634157e-03       3.923909347292e+03 
       4.020673689467e-03       4.673789549863e+03 
       5.061728280202e-03       5.484721119960e+03 
       6.372338359544e-03       6.312430714009e+03 
       8.022298693380e-03       7.111095352079e+03 
       1.009947568610e-02       7.792992415823e+03 
       1.271448658703e-02       8.251184602747e+03 
       1.600659026232e-02       8.361719460511e+03 
       2.015110317605e-02       8.011527469957e+03 
       2.536867628512e-02       7.162405783489e+03 
       3.192727022331e-02       5.945771857332e+03 
       3.980669818599e-02       4.742611608579e+03 
       4.681575703143e-02       4.037948093485e+03 
       5.184750997737e-02       3.705612572519e+03 
       5.593700720785e-02       3.503373287153e+03 
       5.956041928589e-02       3.351169494480e+03 
       6.292493399484e-02       3.217473221576e+03 
       6.613808494132e-02       3.087470178081e+03 
       6.926345421934e-02       2.953732650431e+03 
       7.234237100758e-02       2.813269461624e+03 
       7.540372234215e-02       2.665840346285e+03 
       7.846891351013e-02       2.513129774387e+03 
       8.155459827582e-02       2.358476702109e+03 
       8.467428448972e-02       2.205670318533e+03 
       8.783932961102e-02       2.058969121490e+03 
       9.105958509059e-02       1.922250423408e+03 
       9.434382849734e-02       1.798713870172e+03 
       9.770006191049e-02       1.690601644928e+03 
       1.011357229926e-01       1.598871531144e+03 
       1.046578372451e-01       1.523060632977e+03 
       1.082731295438e-01       1.461446114512e+03 
       1.119881067904e-01       1.411028071983e+03 
       1.158091196451e-01       1.367856846553e+03 
       1.197424088433e-01       1.327348189184e+03 
       1.237941400062e-01       1.285155187137e+03 
       1.279704298135e-01       1.237447338533e+03 
       1.322773657072e-01       1.182078594978e+03 
       1.367210208365e-01       1.118964571531e+03 
       1.413074656459e-01       1.050200798158e+03 
       1.460427773055e-01       9.796427991557e+02 
       1.509330480501e-01       9.118452815622e+02 
       1.559843934115e-01       8.510358746868e+02 
       1.612029612741e-01       7.999543425283e+02 
       1.665949426507e-01       7.593030905009e+02 
       1.721665850571e-01       7.275418728981e+02 
       1.779242093465e-01       7.012217604930e+02 
       1.838742308593e-01       6.760830101234e+02 
       1.900231857361e-01       6.484487763629e+02 
       1.963777632450e-01       6.160740284801e+02 
       2.029448449854e-01       5.794386710588e+02 
       2.097315518611e-01       5.414573299426e+02 
       2.167452997667e-01       5.060291392867e+02 
       2.239938650272e-01       4.757796540974e+02 
       2.314854607653e-01       4.512100700588e+02 
       2.392288255812e-01       4.310128339226e+02 
       2.472333262184e-01       4.126352697989e+02 
       2.555090762896e-01       3.933469879592e+02 
       2.640670736808e-01       3.720992346132e+02 
       2.729193599685e-01       3.499736021209e+02 
       2.820792061480e-01       3.290142446208e+02 
       2.915613302302e-01       3.108467362174e+02 
       3.013821539423e-01       2.954975978153e+02 
       3.115601079947e-01       2.814582142459e+02 
       3.221159983659e-01       2.673128475852e+02 
       3.330734501041e-01       2.527260931365e+02 
       3.444594506880e-01       2.384962926488e+02 
       3.563050226880e-01       2.256252881184e+02 
       3.686460663020e-01       2.140956626749e+02 
       3.815244278429e-01       2.032009420874e+02 
       3.949892727996e-01       1.923419345189e+02 
       4.090988754907e-01       1.818184365401e+02 
       4.239229878171e-01       1.719865527743e+02 
       4.395460275983e-01       1.628014914854e+02 
       4.560714503864e-01       1.539595717168e+02 
       4.736278692331e-01       1.453410532051e+02 
       4.923778227500e-01       1.371121354630e+02 
       5.125306733211e-01       1.292631407595e+02 
       5.343621627857e-01       1.215914576112e+02 
       5.582451143648e-01       1.141307557722e+02 
       5.846996324049e-01       1.068409975468e+02 
       6.144791896976e-01       9.961530728906e+01 
       6.487267921909e-01       9.239713354065e+01 
       6.892776140464e-01       8.506076905202e+01 
       7.392916545385e-01       7.744409720695e+01 
       8.046845041879e-01       6.929814016732e+01 
       8.975147592699e-01       6.026134483673e+01 
       1.042742902000e+00       4.999356394097e+01 
       1.276206925440e+00       3.911273683936e+01 
       1.602548085346e+00       2.972973867101e+01 
       2.017393635814e+00       2.241562163481e+01 
       2.539747671114e+00       1.669254666002e+01 
       3.197352882405e+00       1.220255934302e+01 
       4.025228794133e+00       8.713802965485e+00 
       5.067462817219e+00       6.056452974198e+00 
       6.379557713920e+00       4.088126811713e+00 
       8.031387322061e+00       2.679281147303e+00 
       1.011091759170e+01       1.708384451292e+00 
