# Matter power spectrum P(k) at redshift z=2.5
# for k=7.87949e-06 to 12.501 h/Mpc,
# number of wavenumbers equal to 124
#    1:k (h/Mpc)              2:P (Mpc/h)^3        
       7.879490007966e-06       1.826056344268e+01 
       9.919690203007e-06       2.275744092940e+01 
       1.248815007369e-05       2.836169782008e+01 
       1.572164947407e-05       3.534600425661e+01 
       1.979238403823e-05       4.405014210213e+01 
       2.491713522571e-05       5.489749625096e+01 
       3.136881472476e-05       6.841557308719e+01 
       3.949099799486e-05       8.526150346356e+01 
       4.971622091284e-05       1.062536827501e+02 
       6.258901388555e-05       1.324109501891e+02 
       7.879490007966e-05       1.650008816022e+02 
       9.919690203007e-05       2.055989405494e+02 
       1.248815007369e-04       2.561602068711e+02 
       1.572164947407e-04       3.191048756329e+02 
       1.979238403823e-04       3.974173940040e+02 
       2.491713522571e-04       4.947561069908e+02 
       3.136881472476e-04       6.155646133078e+02 
       3.949099799486e-04       7.651667957728e+02 
       4.971622091284e-04       9.498153625299e+02 
       6.258901388555e-04       1.176653977657e+03 
       7.879490007966e-04       1.453555099194e+03 
       9.919690203007e-04       1.788767697906e+03 
       1.248815007369e-03       2.190383770848e+03 
       1.572164947407e-03       2.665151288231e+03 
       1.979238403823e-03       3.216459761835e+03 
       2.491713522571e-03       3.841932973398e+03 
       3.136881472476e-03       4.530374352781e+03 
       3.949099799486e-03       5.257783180097e+03 
       4.971622091284e-03       5.983080905229e+03 
       6.258901388555e-03       6.645541472517e+03 
       7.879490007966e-03       7.158878203462e+03 
       9.919690203007e-03       7.414364508309e+03 
       1.248815007367e-02       7.289505247741e+03 
       1.572164935498e-02       6.684794815961e+03 
       1.979229220062e-02       5.602448305529e+03 
       2.490428872226e-02       4.252262336913e+03 
       3.093721875151e-02       3.099134886030e+03 
       3.604134544012e-02       2.544193086703e+03 
       3.973987142615e-02       2.322202198279e+03 
       4.278696685680e-02       2.210664777902e+03 
       4.550623301982e-02       2.140152761630e+03 
       4.804167286482e-02       2.082208279303e+03 
       5.046939910993e-02       2.022323633145e+03 
       5.283500396141e-02       1.952615576369e+03 
       5.516841279379e-02       1.869238592072e+03 
       5.749070339207e-02       1.771403875357e+03 
       5.981759360946e-02       1.660755652118e+03 
       6.216137806475e-02       1.540843616443e+03 
       6.453207509734e-02       1.416513942107e+03 
       6.693814194916e-02       1.293220603484e+03 
       6.938693984196e-02       1.176353713452e+03 
       7.188504705855e-02       1.070601239397e+03 
       7.443847581791e-02       9.794867747989e+02 
       7.705282608377e-02       9.051286382570e+02 
       7.973339674367e-02       8.481435520747e+02 
       8.248526718292e-02       8.077155771152e+02 
       8.531335780336e-02       7.816350631196e+02 
       8.822247525679e-02       7.664242373468e+02 
       9.121734639397e-02       7.574320511619e+02 
       9.430264378285e-02       7.492261924331e+02 
       9.748300489447e-02       7.362552238629e+02 
       1.007630465537e-01       7.139054315383e+02 
       1.041473759184e-01       6.796696679590e+02 
       1.076405990279e-01       6.340084974084e+02 
       1.112473278165e-01       5.803984692651e+02 
       1.149721863923e-01       5.244479487461e+02 
       1.188198173218e-01       4.723326397880e+02 
       1.227948886222e-01       4.291454678324e+02 
       1.269021021403e-01       3.977175585021e+02 
       1.311462039822e-01       3.781890095932e+02 
       1.355319976470e-01       3.682010294050e+02 
       1.400643605118e-01       3.633126098929e+02 
       1.447482643132e-01       3.573048236277e+02 
       1.495888002683e-01       3.449731925281e+02 
       1.545912094956e-01       3.242657149932e+02 
       1.597609194119e-01       2.971042245201e+02 
       1.651035868337e-01       2.681953466552e+02 
       1.706251485775e-01       2.428373432784e+02 
       1.763318804696e-01       2.246141709540e+02 
       1.822304658378e-01       2.138827156700e+02 
       1.883280747858e-01       2.078109644310e+02 
       1.946324558693e-01       2.019260138232e+02 
       2.011520422155e-01       1.923368698421e+02 
       2.078960746971e-01       1.781586280599e+02 
       2.148747455201e-01       1.622372170586e+02 
       2.220993665805e-01       1.484900356724e+02 
       2.295825682552e-01       1.389595510162e+02 
       2.373385360490e-01       1.328596456170e+02 
       2.453832948657e-01       1.272205928580e+02 
       2.537350538611e-01       1.196468463434e+02 
       2.624146292081e-01       1.102739782702e+02 
       2.714459681868e-01       1.013711491363e+02 
       2.808568065873e-01       9.464435048606e+01 
       2.906795037080e-01       8.952769262235e+01 
       3.009521171489e-01       8.423789199478e+01 
       3.117198062088e-01       7.804196810914e+01 
       3.230366930117e-01       7.191643422761e+01 
       3.349683729413e-01       6.692624928314e+01 
       3.475953651041e-01       6.257521545554e+01 
       3.610179552248e-01       5.787416609986e+01 
       3.753631551613e-01       5.317393427349e+01 
       3.907949758132e-01       4.910075966581e+01 
       4.075300639666e-01       4.515801196554e+01 
       4.258623643105e-01       4.115393048357e+01 
       4.462036598683e-01       3.744846030181e+01 
       4.691535339448e-01       3.377256594902e+01 
       4.956272294300e-01       3.016695961313e+01 
       5.271055874450e-01       2.657307225449e+01 
       5.661625941489e-01       2.294145652355e+01 
       6.176687711226e-01       1.917786996214e+01 
       6.916352067373e-01       1.519881488059e+01 
       8.085184850168e-01       1.103780947935e+01 
       9.947183629495e-01       7.239427169499e+00 
       1.250134892195e+00       4.567383693473e+00 
       1.573785402976e+00       2.884679559957e+00 
       1.981278281012e+00       1.826773308815e+00 
       2.494281575719e+00       1.156563967650e+00 
       3.140114459843e+00       7.294008161334e-01 
       3.953169889438e+00       4.565258767390e-01 
       4.976746030954e+00       2.826743177222e-01 
       6.265352046413e+00       1.727695783472e-01 
       7.887610905066e+00       1.041175765784e-01 
       9.929913806733e+00       6.187134523130e-02 
       1.250102082822e+01       3.629462542219e-02 
