# Matter power spectrum P(k) at redshift z=1
# for k=7.28719e-06 to 11.5626 h/Mpc,
# number of wavenumbers equal to 124
#    1:k (h/Mpc)              2:P (Mpc/h)^3        
       7.287189692323e-06       7.553845707568e+01 
       9.174028284230e-06       9.440101118319e+01 
       1.154941733554e-05       1.179735937342e+02 
       1.453985497512e-05       1.474320125287e+02 
       1.830459291198e-05       1.842455284305e+02 
       2.304411716944e-05       2.302498419786e+02 
       2.901082469697e-05       2.877378530607e+02 
       3.652246442813e-05       3.595735173630e+02 
       4.597905856992e-05       4.493316842427e+02 
       5.788420524404e-05       5.614724946108e+02 
       7.287189692323e-05       7.015549288033e+02 
       9.174028284230e-05       8.764966144320e+02 
       1.154941733554e-04       1.094885021334e+03 
       1.453985497512e-04       1.367339850346e+03 
       1.830459291198e-04       1.706916498925e+03 
       2.304411716944e-04       2.129520159467e+03 
       2.901082469697e-04       2.654267250309e+03 
       3.652246442813e-04       3.303687330620e+03 
       4.597905856992e-04       4.103622255244e+03 
       5.788420524404e-04       5.082679658917e+03 
       7.287189692323e-04       6.271095898312e+03 
       9.174028284230e-04       7.698591375931e+03 
       1.154941733554e-03       9.390168580641e+03 
       1.453985497512e-03       1.135926224592e+04 
       1.830459291198e-03       1.359897995155e+04 
       2.304411716944e-03       1.607176638754e+04 
       2.901082469697e-03       1.869851131429e+04 
       3.652246442813e-03       2.134794283311e+04 
       4.597905856992e-03       2.381378794319e+04 
       5.788420524404e-03       2.587978786872e+04 
       7.287189692323e-03       2.723562106601e+04 
       9.174028284230e-03       2.756170331001e+04 
       1.154941733553e-02       2.655682482249e+04 
       1.453985493379e-02       2.405059072535e+04 
       1.830455202993e-02       2.019644120700e+04 
       2.303711328867e-02       1.569056055892e+04 
       2.872929082534e-02       1.181720038251e+04 
       3.381193800225e-02       9.769553438167e+03 
       3.745898987831e-02       8.860823087302e+03 
       4.041997610199e-02       8.315317681721e+03 
       4.304204119084e-02       7.897238978638e+03 
       4.547598403499e-02       7.520530587919e+03 
       4.779996348212e-02       7.147420981612e+03 
       5.006014753844e-02       6.761884160641e+03 
       5.228652395357e-02       6.360444305576e+03 
       5.450004054235e-02       5.946735982071e+03 
       5.671621225005e-02       5.529386232583e+03 
       5.894710517408e-02       5.119011217148e+03 
       6.120250272455e-02       4.727607389586e+03 
       6.349062836842e-02       4.365420360198e+03 
       6.581861328510e-02       4.040979178627e+03 
       6.819280988809e-02       3.760067604228e+03 
       7.061900826678e-02       3.524482788617e+03 
       7.310258926038e-02       3.332628609661e+03 
       7.564863485935e-02       3.179910896714e+03 
       7.826200907011e-02       3.058330206500e+03 
       8.094741783410e-02       2.957457003359e+03 
       8.370945377860e-02       2.865514209296e+03 
       8.655262979105e-02       2.771182830816e+03 
       8.948140425356e-02       2.664561422210e+03 
       9.250020001467e-02       2.539526081358e+03 
       9.561341867216e-02       2.395251498634e+03 
       9.882545140496e-02       2.236266737788e+03 
       1.021406873695e-01       2.071613143762e+03 
       1.055635205286e-01       1.912294812045e+03 
       1.090983556846e-01       1.768777988662e+03 
       1.127496144298e-01       1.648109558956e+03 
       1.165217416851e-01       1.552354766413e+03 
       1.204192134781e-01       1.478680232507e+03 
       1.244465465933e-01       1.419683316485e+03 
       1.286083107189e-01       1.365747596870e+03 
       1.329091437086e-01       1.307735985084e+03 
       1.373537705705e-01       1.240009884854e+03 
       1.419470267992e-01       1.162640350496e+03 
       1.466938866748e-01       1.081263890731e+03 
       1.515994971724e-01       1.003591009942e+03 
       1.566692181662e-01       9.363838829269e+02 
       1.619086696783e-01       8.818007784637e+02 
       1.673237870200e-01       8.368712021494e+02 
       1.729208848262e-01       7.965212550219e+02 
       1.787067311898e-01       7.562478978471e+02 
       1.846886333940e-01       7.132754616897e+02 
       1.908745371292e-01       6.681056528888e+02 
       1.972731416036e-01       6.246138036129e+02 
       2.038940336447e-01       5.861220258284e+02 
       2.107478448030e-01       5.529610802829e+02 
       2.178464366759e-01       5.234337952300e+02 
       2.252031212764e-01       4.945989290648e+02 
       2.328329254288e-01       4.653853711501e+02 
       2.407529110883e-01       4.369576409869e+02 
       2.489825674823e-01       4.105509256222e+02 
       2.575442965158e-01       3.869091668814e+02 
       2.664640206981e-01       3.648699623343e+02 
       2.757719540142e-01       3.434660276512e+02 
       2.855035924125e-01       3.226741680725e+02 
       2.957010046410e-01       3.032869767311e+02 
       3.064145405289e-01       2.851339844885e+02 
       3.177051299669e-01       2.678782653702e+02 
       3.296474346951e-01       2.513216577496e+02 
       3.423342593833e-01       2.355373198552e+02 
       3.558828701841e-01       2.205400829071e+02 
       3.704442872632e-01       2.061625723101e+02 
       3.862173696285e-01       1.922624259613e+02 
       4.034709205180e-01       1.788764732846e+02 
       4.225798170092e-01       1.658438246866e+02 
       4.440869398667e-01       1.530652912906e+02 
       4.688154546490e-01       1.404028512454e+02 
       4.980862650370e-01       1.276621042998e+02 
       5.341722742973e-01       1.146073689779e+02 
       5.813250330126e-01       1.008768274192e+02 
       6.482054520239e-01       8.596212602374e+01 
       7.527546090259e-01       6.952970043340e+01 
       9.209164804195e-01       5.285343926498e+01 
       1.156319164558e+00       3.924419499722e+01 
       1.455648145991e+00       2.922492530885e+01 
       1.832552103153e+00       2.174398460326e+01 
       2.307046410859e+00       1.605218848587e+01 
       2.904399352818e+00       1.168474780148e+01 
       3.656422151262e+00       8.343305081625e+00 
       4.603162762470e+00       5.821078912057e+00 
       5.795038576299e+00       3.958548211782e+00 
       7.295521326030e+00       2.620862205206e+00 
       9.184517189625e+00       1.689941757602e+00 
       1.156262208508e+01       1.063373094364e+00 
