# Matter power spectrum P(k) at redshift z=0.5
# for k=8.07007e-06 to 10.1713 h/Mpc,
# number of wavenumbers equal to 123
#    1:k (h/Mpc)              2:P (Mpc/h)^3        
       8.070071608455e-06       6.509898746817e+01 
       1.015961822288e-05       8.146715884000e+01 
       1.279020155491e-05       1.019506497991e+02 
       1.610190975945e-05       1.275838672327e+02 
       2.027110337459e-05       1.596611057470e+02 
       2.551980716338e-05       1.998014320134e+02 
       3.212753374206e-05       2.500298727415e+02 
       4.044616864616e-05       3.128782875847e+02 
       5.091870951836e-05       3.915105539838e+02 
       6.410285734843e-05       4.898770445999e+02 
       8.070071608455e-05       6.129034733314e+02 
       1.015961822288e-04       7.667188395140e+02 
       1.279020155491e-04       9.589243296459e+02 
       1.610190975945e-04       1.198898503617e+03 
       2.027110337459e-04       1.498121219483e+03 
       2.551980716338e-04       1.870475099488e+03 
       3.212753374206e-04       2.332447899523e+03 
       4.044616864616e-04       2.903119332235e+03 
       5.091870951836e-04       3.603795596590e+03 
       6.410285734843e-04       4.457178659154e+03 
       8.070071608455e-04       5.485922113051e+03 
       1.015961822288e-03       6.710032533035e+03 
       1.279020155491e-03       8.142201644681e+03 
       1.610190975945e-03       9.781273192442e+03 
       2.027110337459e-03       1.160450949236e+04 
       2.551980716338e-03       1.355947287517e+04 
       3.212753374206e-03       1.555797944363e+04 
       4.044616864616e-03       1.747251018331e+04 
       5.091870951836e-03       1.913886728349e+04 
       6.410285734843e-03       2.036150699956e+04 
       8.070071608455e-03       2.095821525964e+04 
       1.015961822288e-02       2.073818052233e+04 
       1.279020155491e-02       1.955891519192e+04 
       1.610190975917e-02       1.737161136405e+04 
       2.027110239176e-02       1.430991471322e+04 
       2.551933773394e-02       1.080891734166e+04 
       3.208309079099e-02       7.624126464958e+03 
       3.940834237085e-02       5.597946572569e+03 
       4.505313992887e-02       4.780365595929e+03 
       4.927632624487e-02       4.394625518419e+03 
       5.284755196889e-02       4.134236406241e+03 
       5.607907967502e-02       3.910316209210e+03 
       5.911681783615e-02       3.690340842444e+03 
       6.204078235281e-02       3.462183636253e+03 
       6.490018977376e-02       3.223949413296e+03 
       6.772799863501e-02       2.979139692223e+03 
       7.054779706387e-02       2.734322113181e+03 
       7.337740943952e-02       2.496893907572e+03 
       7.623093612306e-02       2.274191567252e+03 
       7.911997911300e-02       2.072783076237e+03 
       8.205441535555e-02       1.896976383333e+03 
       8.504290451113e-02       1.749095036480e+03 
       8.809323351783e-02       1.629249254664e+03 
       9.121255685556e-02       1.535515470913e+03 
       9.440756786214e-02       1.464099325713e+03 
       9.768462309906e-02       1.409502214680e+03 
       1.010498338982e-01       1.365389228301e+03 
       1.045091344342e-01       1.324656398789e+03 
       1.080683326744e-01       1.280676293274e+03 
       1.117331486410e-01       1.228360435311e+03 
       1.155092431744e-01       1.164946418599e+03 
       1.194022395632e-01       1.090773016243e+03 
       1.234177398557e-01       1.009151541600e+03 
       1.275613373089e-01       9.256825359991e+02 
       1.318386261831e-01       8.465174067354e+02 
       1.362552099352e-01       7.770299514900e+02 
       1.408167087610e-01       7.201953011126e+02 
       1.455287673698e-01       6.765651008453e+02 
       1.503970638360e-01       6.438095788334e+02 
       1.554273203465e-01       6.177866402969e+02 
       1.606253166467e-01       5.935663902665e+02 
       1.659969069751e-01       5.666166885171e+02 
       1.715480412728e-01       5.348086595584e+02 
       1.772847914480e-01       4.982697011463e+02 
       1.832133834839e-01       4.605082822503e+02 
       1.893402361906e-01       4.253822808999e+02 
       1.956720074402e-01       3.954688233482e+02 
       2.022156487830e-01       3.713757412718e+02 
       2.089784694449e-01       3.515802456283e+02 
       2.159682108526e-01       3.333111679079e+02 
       2.231931330555e-01       3.147353626787e+02 
       2.306621147119e-01       2.954070530872e+02 
       2.383847687260e-01       2.756363451098e+02 
       2.463715761770e-01       2.567098609825e+02 
       2.546340419233e-01       2.400971863493e+02 
       2.631848762459e-01       2.257408687281e+02 
       2.720382081917e-01       2.126293950585e+02 
       2.812098379955e-01       2.000023141808e+02 
       2.907175382553e-01       1.873716690558e+02 
       3.005814166231e-01       1.752404494194e+02 
       3.108243569688e-01       1.641141475121e+02 
       3.214725617607e-01       1.539398963757e+02 
       3.325562264660e-01       1.445816976616e+02 
       3.441103882030e-01       1.354611925031e+02 
       3.561760073145e-01       1.267654333455e+02 
       3.688013646154e-01       1.186337074890e+02 
       3.820438930030e-01       1.111070802749e+02 
       3.959726168791e-01       1.038847537152e+02 
       4.106714581864e-01       9.706009058507e+01 
       4.262438042616e-01       9.059844592494e+01 
       4.428189568652e-01       8.443956300229e+01 
       4.605614617297e-01       7.860270214987e+01 
       4.796849850290e-01       7.301074422537e+01 
       5.004736213401e-01       6.765200639672e+01 
       5.233158441252e-01       6.248023226582e+01 
       5.487609849235e-01       5.746549767430e+01 
       5.776180814799e-01       5.255644479555e+01 
       6.111395467914e-01       4.769384481178e+01 
       6.513871773455e-01       4.281339221666e+01 
       7.020210186724e-01       3.780209489082e+01 
       7.701294325776e-01       3.252662059692e+01 
       8.704895663648e-01       2.682342379212e+01 
       1.031853396817e+00       2.075321674827e+01 
       1.281357868797e+00       1.522245467297e+01 
       1.612060959642e+00       1.113956755441e+01 
       2.029450717584e+00       8.231368816958e+00 
       2.554927047954e+00       6.104324355757e+00 
       3.216462585939e+00       4.511205418545e+00 
       4.049286485524e+00       3.300205939362e+00 
       5.097749656261e+00       2.375994620144e+00 
       6.417686585232e+00       1.675621542984e+00 
       8.079388727079e+00       1.153841418330e+00 
       1.017134778028e+01       7.745414942067e-01 
