# Matter power spectrum P(k) at redshift z=0.5
# for k=9.65015e-06 to 12.1657 h/Mpc,
# number of wavenumbers equal to 123
#    1:k (h/Mpc)              2:P (Mpc/h)^3        
       9.650153361810e-06       3.241029057489e+01 
       1.214882329489e-05       4.044192304304e+01 
       1.529446236934e-05       5.046382227910e+01 
       1.925458733649e-05       6.296910139821e+01 
       2.424008929152e-05       7.857299357304e+01 
       3.051646439325e-05       9.804301640209e+01 
       3.841795250278e-05       1.223365345681e+02 
       4.836533667485e-05       1.526474132021e+02 
       6.088835138994e-05       1.904640365786e+02 
       7.665389284705e-05       2.376408606844e+02 
       9.650153361810e-05       2.964864709077e+02 
       1.214882329489e-04       3.698709136473e+02 
       1.529446236934e-04       4.613546782587e+02 
       1.925458733649e-04       5.753402227877e+02 
       2.424008929152e-04       7.172434356915e+02 
       3.051646439325e-04       8.936757632070e+02 
       3.841795250278e-04       1.112616804163e+03 
       4.836533667485e-04       1.383543117029e+03 
       6.088835138994e-04       1.717466851702e+03 
       7.665389284705e-04       2.126832594897e+03 
       9.650153361810e-04       2.625195309682e+03 
       1.214882329489e-03       3.226470872905e+03 
       1.529446236934e-03       3.943384788662e+03 
       1.925458733649e-03       4.784979386286e+03 
       2.424008929152e-03       5.753129888781e+03 
       3.051646439325e-03       6.838114471698e+03 
       3.841795250278e-03       8.013671967451e+03 
       4.836533667485e-03       9.231746503131e+03 
       6.088835138994e-03       1.041784129932e+04 
       7.665389284705e-03       1.145701314506e+04 
       9.650153361810e-03       1.224471032629e+04 
       1.214882329489e-02       1.262246102724e+04 
       1.529446236934e-02       1.243964296030e+04 
       1.925458732751e-02       1.158253677777e+04 
       2.424007532664e-02       1.005376641000e+04 
       3.051300371277e-02       8.081901145438e+03 
       3.822729333476e-02       6.181501399914e+03 
       4.579997851187e-02       5.011016171604e+03 
       5.123853617774e-02       4.491665820188e+03 
       5.553001516441e-02       4.194926957663e+03 
       5.927316514866e-02       3.977246574396e+03 
       6.271815352679e-02       3.788206015986e+03 
       6.598999809302e-02       3.606116478479e+03 
       6.916065360124e-02       3.421133862595e+03 
       7.227596615851e-02       3.230029479690e+03 
       7.536748240078e-02       3.033260634036e+03 
       7.845828098634e-02       2.834059027409e+03 
       8.156612463694e-02       2.636876631700e+03 
       8.470528752506e-02       2.446528958777e+03 
       8.788767534903e-02       2.268351077677e+03 
       9.112354354831e-02       2.106220327197e+03 
       9.442197521653e-02       1.963280118304e+03 
       9.779120899885e-02       1.841059497543e+03 
       1.012388698173e-01       1.739405895322e+03 
       1.047721345994e-01       1.656725510462e+03 
       1.083978532841e-01       1.589738564681e+03 
       1.121226382792e-01       1.534046694274e+03 
       1.159529311739e-01       1.484547055292e+03 
       1.198950527513e-01       1.435859784619e+03 
       1.239552405702e-01       1.383140808147e+03 
       1.281396772184e-01       1.323031738658e+03 
       1.324545115704e-01       1.254193801772e+03 
       1.369058748672e-01       1.177979297981e+03 
       1.414998930963e-01       1.097882632944e+03 
       1.462426969213e-01       1.018753349027e+03 
       1.511404302666e-01       9.455594649522e+02 
       1.561992585640e-01       8.821207497748e+02 
       1.614253776129e-01       8.302105112227e+02 
       1.668250239643e-01       7.892950258204e+02 
       1.724044877197e-01       7.565323588839e+02 
       1.781701286174e-01       7.277251084858e+02 
       1.841283962706e-01       6.984024910320e+02 
       1.902858554137e-01       6.654016329812e+02 
       1.966492170148e-01       6.277562345305e+02 
       2.032253761211e-01       5.874149046078e+02 
       2.100214573274e-01       5.477280212130e+02 
       2.170448688068e-01       5.121628325017e+02 
       2.243033659255e-01       4.825230169237e+02 
       2.318051255894e-01       4.580638706139e+02 
       2.395588326644e-01       4.366571785037e+02 
       2.475737800785e-01       4.159918343462e+02 
       2.558599845961e-01       3.944210665515e+02 
       2.644283207571e-01       3.716239257796e+02 
       2.732906761616e-01       3.490589211445e+02 
       2.824601321787e-01       3.285313726375e+02 
       2.919511753580e-01       3.106497051837e+02 
       3.017799463993e-01       2.949028546664e+02 
       3.119645356394e-01       2.799448442740e+02 
       3.225253368269e-01       2.648777508002e+02 
       3.334854747515e-01       2.500060715347e+02 
       3.448713274873e-01       2.359587502129e+02 
       3.567131711832e-01       2.232360374563e+02 
       3.690459854124e-01       2.115358134501e+02 
       3.819104714410e-01       2.002569617051e+02 
       3.953543565707e-01       1.892523908400e+02 
       4.094340883726e-01       1.788273218572e+02 
       4.242170687543e-01       1.690860990847e+02 
       4.397846486654e-01       1.598343771468e+02 
       4.562362157361e-01       1.509318285727e+02 
       4.736948871551e-01       1.424104883117e+02 
       4.923156193229e-01       1.342623316852e+02 
       5.122970596325e-01       1.264469522352e+02 
       5.338993809189e-01       1.188657326313e+02 
       5.574720380971e-01       1.115239307299e+02 
       5.834986924207e-01       1.043506660710e+02 
       6.126733348382e-01       9.727907849443e+01 
       6.460364387315e-01       9.024042934174e+01 
       6.852344848774e-01       8.312271956482e+01 
       7.330524866332e-01       7.578409961323e+01 
       7.945970089086e-01       6.800485958676e+01 
       8.800882977745e-01       5.946563300028e+01 
       1.010941618691e+00       4.979719363467e+01 
       1.223127753391e+00       3.926024065281e+01 
       1.531786695299e+00       2.976322217730e+01 
       1.928137814249e+00       2.236402035890e+01 
       2.427379830882e+00       1.664111803739e+01 
       3.055890151087e+00       1.219026559531e+01 
       3.847137766855e+00       8.747865537308e+00 
       4.843259497366e+00       6.126805185447e+00 
       6.097302457148e+00       4.177587535950e+00 
       7.676049006699e+00       2.770325457058e+00 
       9.663573156710e+00       1.788297810998e+00 
       1.216571781571e+01       1.126776840838e+00 
