# Matter power spectrum P(k) at redshift z=2
# for k=1.13589e-05 to 11.3744 h/Mpc,
# number of wavenumbers equal to 122
#    1:k (h/Mpc)              2:P (Mpc/h)^3        
       1.135890234065e-05       4.307455860211e+00 
       1.430001080673e-05       5.379358737534e+00 
       1.800264699353e-05       6.717999975359e+00 
       2.266398977971e-05       8.389753056312e+00 
       2.853227266632e-05       1.047750475397e+01 
       3.592000311588e-05       1.308476183767e+01 
       4.522060471430e-05       1.634077197964e+01 
       5.692936841153e-05       2.040691715953e+01 
       7.166982857067e-05       2.548468230382e+01 
       9.022696844655e-05       3.182557507595e+01 
       1.135890234065e-04       3.974346587462e+01 
       1.430001080673e-04       4.962988262996e+01 
       1.800264699353e-04       6.197290590480e+01 
       2.266398977971e-04       7.738034798596e+01 
       2.853227266632e-04       9.660790486098e+01 
       3.592000311588e-04       1.205928004412e+02 
       4.522060471430e-04       1.504930015309e+02 
       5.692936841153e-04       1.877311940579e+02 
       7.166982857067e-04       2.340412920840e+02 
       9.022696844655e-04       2.915134993140e+02 
       1.135890234065e-03       3.626323328169e+02 
       1.430001080673e-03       4.502848980450e+02 
       1.800264699353e-03       5.577581275683e+02 
       2.266398977971e-03       6.886661818580e+02 
       2.853227266632e-03       8.466665503513e+02 
       3.592000311588e-03       1.035061105231e+03 
       4.522060471430e-03       1.254686754929e+03 
       5.692936841153e-03       1.507844427695e+03 
       7.166982857067e-03       1.790023814136e+03 
       9.022696844655e-03       2.091970306730e+03 
       1.135890234065e-02       2.395876603755e+03 
       1.430001080673e-02       2.673273390167e+03 
       1.800264699195e-02       2.883818884871e+03 
       2.266398607414e-02       2.980597027754e+03 
       2.853098691729e-02       2.927578785850e+03 
       3.582632385094e-02       2.734017215626e+03 
       4.353436817328e-02       2.506775705669e+03 
       4.921310913717e-02       2.362669522488e+03 
       5.357279464438e-02       2.267925592203e+03 
       5.731806707029e-02       2.194436711170e+03 
       6.073618385967e-02       2.130705484095e+03 
       6.396587148575e-02       2.071043315477e+03 
       6.708504751105e-02       2.012265840085e+03 
       7.014247624661e-02       1.952551624095e+03 
       7.317125034479e-02       1.890955648222e+03 
       7.619530868356e-02       1.827209081362e+03 
       7.923290295412e-02       1.761543311968e+03 
       8.229858211522e-02       1.694616376209e+03 
       8.540439645129e-02       1.627390612702e+03 
       8.856066327078e-02       1.561024227950e+03 
       9.177647294851e-02       1.496735178895e+03 
       9.506003416760e-02       1.435658206706e+03 
       9.841891572376e-02       1.378728399024e+03 
       1.018602195604e-01       1.326559264017e+03 
       1.053907067387e-01       1.279348667252e+03 
       1.090168903624e-01       1.236825784978e+03 
       1.127451047759e-01       1.198257193265e+03 
       1.165815573988e-01       1.162499517132e+03 
       1.205323676664e-01       1.128123295736e+03 
       1.246035963037e-01       1.093615933200e+03 
       1.288012673432e-01       1.057634187476e+03 
       1.331313847507e-01       1.019286212611e+03 
       1.375999451621e-01       9.783381715642e+02 
       1.422129479912e-01       9.353097901476e+02 
       1.469764040140e-01       8.914069541147e+02 
       1.518963434312e-01       8.482590172149e+02 
       1.569788243492e-01       8.075711903567e+02 
       1.622299425773e-01       7.706480718040e+02 
       1.676558436158e-01       7.380450740522e+02 
       1.732627376934e-01       7.094198916765e+02 
       1.790569186999e-01       6.835533893238e+02 
       1.850447878547e-01       6.588626115941e+02 
       1.912328829497e-01       6.335484285494e+02 
       1.976279140121e-01       6.064933316401e+02 
       2.042368062524e-01       5.777702865565e+02 
       2.110667512060e-01       5.485733550848e+02 
       2.181252670471e-01       5.205417231654e+02 
       2.254202691720e-01       4.950360005937e+02 
       2.329601523200e-01       4.726266810781e+02 
       2.407538857476e-01       4.528225615001e+02 
       2.488111233197e-01       4.342597150979e+02 
       2.571423308483e-01       4.155416641064e+02 
       2.657589336414e-01       3.960361566137e+02 
       2.746734880605e-01       3.761471093679e+02 
       2.838998819907e-01       3.570345043894e+02 
       2.934535705922e-01       3.397254556263e+02 
       3.033518556432e-01       3.242690306095e+02 
       3.136142193800e-01       3.098774237048e+02 
       3.242627272380e-01       2.955944263142e+02 
       3.353225186673e-01       2.811131959577e+02 
       3.468224117737e-01       2.669751948379e+02 
       3.587956567431e-01       2.538385982790e+02 
       3.712808860834e-01       2.418086902897e+02 
       3.843233285913e-01       2.303225623012e+02 
       3.979763816924e-01       2.189467830929e+02 
       4.123036783515e-01       2.078191128342e+02 
       4.273818483117e-01       1.973176711911e+02 
       4.433042729285e-01       1.874184429178e+02 
       4.601862926658e-01       1.777919941968e+02 
       4.781725903542e-01       1.683508135248e+02 
       4.974479236250e-01       1.592856712508e+02 
       5.182531758990e-01       1.505440928894e+02 
       5.409101601968e-01       1.419275953103e+02 
       5.658614324745e-01       1.334888869461e+02 
       5.937371002270e-01       1.251605151582e+02 
       6.254729490068e-01       1.168169680791e+02 
       6.625325864571e-01       1.083842115442e+02 
       7.073562921492e-01       9.967975745528e+01 
       7.643426537844e-01       9.047056653796e+01 
       8.421479492992e-01       8.039241806502e+01 
       9.589157110633e-01       6.897805710490e+01 
       1.147998377871e+00       5.621820031068e+01 
       1.432416870138e+00       4.401309378118e+01 
       1.802723587393e+00       3.409951108720e+01 
       2.269488927563e+00       2.612194983554e+01 
       2.857117273382e+00       1.961607599859e+01 
       3.596897539935e+00       1.433648666173e+01 
       4.528225716644e+00       1.014495553491e+01 
       5.700698425023e+00       6.933222266052e+00 
       7.176754112236e+00       4.580352008252e+00 
       9.034998126093e+00       2.936466722266e+00 
       1.137438873645e+01       1.836196995400e+00 
