# Matter power spectrum P(k) at redshift z=2
# for k=1.15134e-05 to 11.5268 h/Mpc,
# number of wavenumbers equal to 122
#    1:k (h/Mpc)              2:P (Mpc/h)^3        
       1.151338608746e-05       7.068164182235e+00 
       1.449449432130e-05       8.783269421771e+00 
       1.824748723219e-05       1.091454226930e+01 
       2.297222537799e-05       1.356295885526e+01 
       2.892031829382e-05       1.685399086086e+01 
       3.640852361727e-05       2.094353825640e+01 
       4.583561558768e-05       2.602530246429e+01 
       5.770362122856e-05       3.233992561857e+01 
       7.264455511719e-05       4.018632513217e+01 
       9.145407646551e-05       4.993571818438e+01 
       1.151338608746e-04       6.204894455046e+01 
       1.449449432130e-04       7.709776950770e+01 
       1.824748723219e-04       9.579094622048e+01 
       2.297222537799e-04       1.190057849724e+02 
       2.892031829382e-04       1.478258333280e+02 
       3.640852361727e-04       1.835847756766e+02 
       4.583561558768e-04       2.279156219150e+02 
       5.770362122856e-04       2.828023854093e+02 
       7.264455511719e-04       3.506286902177e+02 
       9.145407646551e-04       4.342147078844e+02 
       1.151338608746e-03       5.368317776083e+02 
       1.449449432130e-03       6.621811370991e+02 
       1.824748723219e-03       8.142961178357e+02 
       2.297222537799e-03       9.973059454852e+02 
       2.892031829382e-03       1.214991099423e+03 
       3.640852361727e-03       1.470035827712e+03 
       4.583561558768e-03       1.762997630683e+03 
       5.770362122856e-03       2.088212254123e+03 
       7.264455511719e-03       2.441127675751e+03 
       9.145407646551e-03       2.803604743398e+03 
       1.151338608746e-02       3.148764733822e+03 
       1.449449432130e-02       3.438136923673e+03 
       1.824748723184e-02       3.622164744842e+03 
       2.297222417875e-02       3.648875667929e+03 
       2.891975644199e-02       3.485916225943e+03 
       3.635616238837e-02       3.158515239316e+03 
       4.463142467939e-02       2.801728724351e+03 
       5.098788302779e-02       2.580195908641e+03 
       5.575067462969e-02       2.443317346137e+03 
       5.978219168949e-02       2.340891896035e+03 
       6.343216957244e-02       2.254096478758e+03 
       6.686435269233e-02       2.174368686619e+03 
       7.016866940315e-02       2.097263796923e+03 
       7.340049166533e-02       2.020425788878e+03 
       7.659692994101e-02       1.942754693073e+03 
       7.978456101048e-02       1.864028372643e+03 
       8.298347842970e-02       1.784632196448e+03 
       8.620958493194e-02       1.705413592977e+03 
       8.947597071888e-02       1.627492628422e+03 
       9.279378348835e-02       1.552115897431e+03 
       9.617279993054e-02       1.480490748361e+03 
       9.962181366326e-02       1.413655265307e+03 
       1.031489058113e-01       1.352325490301e+03 
       1.067616379806e-01       1.296805829460e+03 
       1.104671923698e-01       1.246933378362e+03 
       1.142724749220e-01       1.202052579160e+03 
       1.181841920326e-01       1.161070733522e+03 
       1.222089079653e-01       1.122573247595e+03 
       1.263530879722e-01       1.084998719161e+03 
       1.306231307082e-01       1.046859419391e+03 
       1.350253926069e-01       1.007023920629e+03 
       1.395662062645e-01       9.649371081711e+02 
       1.442518944731e-01       9.208170349203e+02 
       1.490887812669e-01       8.755525306893e+02 
       1.540832011709e-01       8.306027691702e+02 
       1.592415077247e-01       7.876001640932e+02 
       1.645700822789e-01       7.479837740234e+02 
       1.700753440200e-01       7.125979288885e+02 
       1.757637621481e-01       6.814615502258e+02 
       1.816418711141e-01       6.537659205166e+02 
       1.877162898114e-01       6.280497662043e+02 
       1.939937456090e-01       6.027087888612e+02 
       2.004811041089e-01       5.765650128193e+02 
       2.071854055183e-01       5.490771744139e+02 
       2.141139085432e-01       5.207456571999e+02 
       2.212741427513e-01       4.928897747766e+02 
       2.286739704209e-01       4.669612907215e+02 
       2.363216590078e-01       4.437635200909e+02 
       2.442259655285e-01       4.231592489039e+02 
       2.523962344102e-01       4.043457787404e+02 
       2.608425106978e-01       3.862386164216e+02 
       2.695756709807e-01       3.679445425743e+02 
       2.786075750350e-01       3.493547693111e+02 
       2.879512420153e-01       3.311300061227e+02 
       2.976210561426e-01       3.140688222845e+02 
       3.076330083056e-01       2.986080617033e+02 
       3.180049819425e-01       2.844939535399e+02 
       3.287570941707e-01       2.709878927966e+02 
       3.399121066347e-01       2.576395710519e+02 
       3.514959253050e-01       2.445147645814e+02 
       3.635382150178e-01       2.320275718278e+02 
       3.760731636955e-01       2.204615522947e+02 
       3.891404441554e-01       2.096265366137e+02 
       4.027864400715e-01       1.991885530576e+02 
       4.170658299922e-01       1.890049306436e+02 
       4.320436641255e-01       1.792743717539e+02 
       4.477981307946e-01       1.700748377683e+02 
       4.644243064314e-01       1.612879770126e+02 
       4.820393379779e-01       1.527894287700e+02 
       5.007897613716e-01       1.445764094977e+02 
       5.208620918800e-01       1.366886007303e+02 
       5.424985808976e-01       1.290541485081e+02 
       5.660214202271e-01       1.215944970335e+02 
       5.918713240101e-01       1.143097812394e+02 
       6.206717452203e-01       1.071234806216e+02 
       6.533413325395e-01       9.996639781183e+01 
       6.913030328021e-01       9.275123879830e+01 
       7.369011208326e-01       8.534299391997e+01 
       7.943008143873e-01       7.754701475880e+01 
       8.715765833995e-01       6.906592578143e+01 
       9.855687536347e-01       5.949378903201e+01 
       1.168952428915e+00       4.865486367751e+01 
       1.452077684612e+00       3.787064697079e+01 
       1.826890911089e+00       2.898826144859e+01 
       2.299904652266e+00       2.192972769749e+01 
       2.895408377506e+00       1.627893537632e+01 
       3.645103183954e+00       1.178507734321e+01 
       4.588913026891e+00       8.284025649817e+00 
       5.777099222066e+00       5.639937961178e+00 
       7.272937017116e+00       3.719299807523e+00 
       9.156085229225e+00       2.382393602224e+00 
       1.152682836762e+01       1.488771838472e+00 
