# Matter power spectrum P(k) at redshift z=1
# for k=9.49995e-06 to 11.9745 h/Mpc,
# number of wavenumbers equal to 123
#    1:k (h/Mpc)              2:P (Mpc/h)^3        
       9.499951586342e-06       3.130067301782e+01 
       1.195973046286e-05       3.902497587136e+01 
       1.505640859790e-05       4.865543228679e+01 
       1.895489539426e-05       6.066233925338e+01 
       2.386279948973e-05       7.563203927954e+01 
       3.004148467417e-05       9.429539292492e+01 
       3.781998846434e-05       1.175633664361e+02 
       4.761254455152e-05       1.465711955364e+02 
       5.994064225609e-05       1.827331876826e+02 
       7.546079773545e-05       2.278105599969e+02 
       9.499951586342e-05       2.839950126662e+02 
       1.195973046286e-04       3.540109302405e+02 
       1.505640859790e-04       4.412390300185e+02 
       1.895489539426e-04       5.498631813940e+02 
       2.386279948973e-04       6.850396457960e+02 
       3.004148467417e-04       8.530826921302e+02 
       3.781998846434e-04       1.061651273304e+03 
       4.761254455152e-04       1.319908028843e+03 
       5.994064225609e-04       1.638607628641e+03 
       7.546079773545e-04       2.030063992597e+03 
       9.499951586342e-04       2.507939191457e+03 
       1.195973046286e-03       3.086723599163e+03 
       1.505640859790e-03       3.780543958511e+03 
       1.895489539426e-03       4.601008911343e+03 
       2.386279948973e-03       5.554102623654e+03 
       3.004148467417e-03       6.635873319410e+03 
       3.781998846434e-03       7.827343447182e+03 
       4.761254455152e-03       9.088235499268e+03 
       5.994064225609e-03       1.034027293272e+04 
       7.546079773545e-03       1.149989266991e+04 
       9.499951586342e-03       1.242203009632e+04 
       1.195973046286e-02       1.293538391635e+04 
       1.505640859790e-02       1.284847121750e+04 
       1.895489536398e-02       1.199916427958e+04 
       2.386276486590e-02       1.036235863043e+04 
       3.003480757068e-02       8.202970803382e+03 
       3.752263796307e-02       6.173593145716e+03 
       4.442172989835e-02       5.038819583802e+03 
       4.935929969552e-02       4.562664144528e+03 
       5.333255437255e-02       4.306353671819e+03 
       5.683453236489e-02       4.129583628182e+03 
       6.007656772500e-02       3.979571323989e+03 
       6.316693404425e-02       3.831325625067e+03 
       6.616906289120e-02       3.672264633231e+03 
       6.912390317146e-02       3.497134728839e+03 
       7.205992190930e-02       3.305423512155e+03 
       7.499811984448e-02       3.100108868911e+03 
       7.795477486297e-02       2.886748704929e+03 
       8.094304743882e-02       2.672307355573e+03 
       8.397397210418e-02       2.464395562609e+03 
       8.705709712402e-02       2.270059321594e+03 
       9.020091231383e-02       2.095369561510e+03 
       9.341314380114e-02       1.944527255393e+03 
       9.670096215103e-02       1.819765975019e+03 
       1.000711322766e-01       1.721016755766e+03 
       1.035301231318e-01       1.646041945731e+03 
       1.070841889327e-01       1.590692663209e+03 
       1.107394297895e-01       1.548990729815e+03 
       1.145018371851e-01       1.513742070895e+03 
       1.183773281553e-01       1.477280001972e+03 
       1.223717709854e-01       1.432496571225e+03 
       1.264910045510e-01       1.374704221179e+03 
       1.307408529731e-01       1.302093158859e+03 
       1.351271369508e-01       1.217010039088e+03 
       1.396556829350e-01       1.125249851257e+03 
       1.443323311751e-01       1.034345393020e+03 
       1.491629435864e-01       9.519413005110e+02 
       1.541534123350e-01       8.837191855507e+02 
       1.593096700015e-01       8.320227085548e+02 
       1.646377021672e-01       7.956287948558e+02 
       1.701435632497e-01       7.699792494536e+02 
       1.758333964091e-01       7.483984958133e+02 
       1.817134583368e-01       7.240084202596e+02 
       1.877901497444e-01       6.913760814474e+02 
       1.940700523762e-01       6.496921800617e+02 
       2.005599733990e-01       6.028266792392e+02 
       2.072669980698e-01       5.571375693107e+02 
       2.141985516674e-01       5.179815715743e+02 
       2.213624718035e-01       4.879089241295e+02 
       2.287670924196e-01       4.660703788961e+02 
       2.364213410496e-01       4.485409105558e+02 
       2.443348512991e-01       4.301321151017e+02 
       2.525180930019e-01       4.078013091863e+02 
       2.609825231902e-01       3.821032568854e+02 
       2.697407619080e-01       3.563386783786e+02 
       2.788067980870e-01       3.342378781172e+02 
       2.881962322700e-01       3.169192066104e+02 
       2.979265650526e-01       3.024783068356e+02 
       3.080175429130e-01       2.881470740915e+02 
       3.184915768782e-01       2.722793278533e+02 
       3.293742546564e-01       2.558225002207e+02 
       3.406949740393e-01       2.407952696505e+02 
       3.524877354756e-01       2.280551657020e+02 
       3.647921461337e-01       2.165921726572e+02 
       3.776547087142e-01       2.050081072063e+02 
       3.911304992496e-01       1.932581100949e+02 
       4.052853848678e-01       1.822159265403e+02 
       4.201990045548e-01       1.722123105026e+02 
       4.359688497573e-01       1.627687233620e+02 
       4.527159661962e-01       1.533632796490e+02 
       4.705931064609e-01       1.442969339804e+02 
       4.897966950057e-01       1.358259385095e+02 
       5.105849205381e-01       1.275520468190e+02 
       5.333060527884e-01       1.194448192903e+02 
       5.584445750809e-01       1.116009681561e+02 
       5.866999606786e-01       1.038227056642e+02 
       6.191288590751e-01       9.608080874953e+01 
       6.574190280840e-01       8.823684389475e+01 
       7.044582332637e-01       8.013342090609e+01 
       7.656129443353e-01       7.151480774280e+01 
       8.517550614727e-01       6.202042928250e+01 
       9.855253143579e-01       5.129717060578e+01 
       1.201518687332e+00       3.989918239175e+01 
       1.507605449748e+00       3.003505847765e+01 
       1.897831034270e+00       2.244901904257e+01 
       2.389227007389e+00       1.660720394382e+01 
       3.007858593565e+00       1.208516452713e+01 
       3.786669618523e+00       8.607835507428e+00 
       4.767134608827e+00       5.979083265752e+00 
       6.001466900496e+00       4.040850549230e+00 
       7.555399189076e+00       2.654951153700e+00 
       9.511684035376e+00       1.697685750683e+00 
       1.197450074109e+01       1.059606442281e+00 
