# Matter power spectrum P(k) at redshift z=0
# for k=8.9955e-06 to 11.3362 h/Mpc,
# number of wavenumbers equal to 123
#    1:k (h/Mpc)              2:P (Mpc/h)^3        
       8.995495213476e-06       7.978916308552e+01 
       1.132465751592e-05       9.908164029193e+01 
       1.425689912666e-05       1.230387183157e+02 
       1.794837260393e-05       1.527882047205e+02 
       2.259566237144e-05       1.897302916290e+02 
       2.844625355573e-05       2.356034578164e+02 
       3.581171147165e-05       2.925659338504e+02 
       4.508427361150e-05       3.632965181764e+02 
       5.675773772179e-05       4.511193037398e+02 
       7.145375833391e-05       5.601573309647e+02 
       8.995495213476e-05       6.955212151219e+02 
       1.132465751592e-04       8.635389722619e+02 
       1.425689912666e-04       1.072033162060e+03 
       1.794837260393e-04       1.330649293726e+03 
       2.259566237144e-04       1.651234581520e+03 
       2.844625355573e-04       2.048256608304e+03 
       3.581171147165e-04       2.539236006484e+03 
       4.508427361150e-04       3.145147926446e+03 
       5.675773772179e-04       3.890727882024e+03 
       7.145375833391e-04       4.804589271139e+03 
       8.995495213476e-04       5.918956526079e+03 
       1.132465751592e-03       7.268576297816e+03 
       1.425689912666e-03       8.888096543704e+03 
       1.794837260393e-03       1.080825611521e+04 
       2.259566237144e-03       1.304891834033e+04 
       2.844625355573e-03       1.560978145996e+04 
       3.581171147165e-03       1.845843066382e+04 
       4.508427361150e-03       2.146239259153e+04 
       5.675773772179e-03       2.455795601200e+04 
       7.145375833391e-03       2.748530650214e+04 
       8.995495213476e-03       2.991641436793e+04 
       1.132465751592e-02       3.143524686379e+04 
       1.425689912661e-02       3.156004304320e+04 
       1.794837235044e-02       2.987512541667e+04 
       2.259549572385e-02       2.630884694677e+04 
       2.842578360557e-02       2.150692241853e+04 
       3.520062870831e-02       1.713399370655e+04 
       4.074401006300e-02       1.481608014447e+04 
       4.479776737750e-02       1.368480530472e+04 
       4.816771981686e-02       1.297515331398e+04 
       5.118947213375e-02       1.243557046740e+04 
       5.401478213457e-02       1.195994536434e+04 
       5.672486261121e-02       1.149624046946e+04 
       5.936879476604e-02       1.101622657235e+04 
       6.197901036173e-02       1.050948478179e+04 
       6.457847422210e-02       9.974299454105e+03 
       6.718438673997e-02       9.415671551292e+03 
       6.981025245352e-02       8.845070982294e+03 
       7.246711104244e-02       8.278012397384e+03 
       7.516430792416e-02       7.730168254834e+03 
       7.790999697910e-02       7.216870997022e+03 
       8.071147987556e-02       6.751183883849e+03 
       8.357544163998e-02       6.342354277429e+03 
       8.650811802385e-02       5.995671023856e+03 
       8.951541665616e-02       5.709924685794e+03 
       9.260300603215e-02       5.480232000531e+03 
       9.577638158394e-02       5.296007307352e+03 
       9.904091508710e-02       5.142598758442e+03 
       1.024018917498e-01       5.003400326941e+03 
       1.058645380925e-01       4.860448160677e+03 
       1.094340429102e-01       4.698307353457e+03 
       1.131155730671e-01       4.507034388799e+03 
       1.169142855122e-01       4.284348761774e+03 
       1.208353366652e-01       4.036429750756e+03 
       1.248838901638e-01       3.777511230429e+03 
       1.290651238618e-01       3.524905869258e+03 
       1.333842369007e-01       3.296159689425e+03 
       1.378464576407e-01       3.103376376942e+03 
       1.424570532073e-01       2.951161327798e+03 
       1.472213413955e-01       2.835224670823e+03 
       1.521447056644e-01       2.743417239250e+03 
       1.572326139439e-01       2.659938735144e+03 
       1.624906419762e-01       2.568088796365e+03 
       1.679245019147e-01       2.456866325101e+03 
       1.735400769169e-01       2.326451271384e+03 
       1.793434624965e-01       2.187516129128e+03 
       1.853410154505e-01       2.055345058545e+03 
       1.915394112639e-01       1.941611013238e+03 
       1.979457110217e-01       1.850973809483e+03 
       2.045674390481e-01       1.779964445041e+03 
       2.114126727555e-01       1.717676464221e+03 
       2.184901465507e-01       1.652174874962e+03 
       2.258093721313e-01       1.577761542885e+03 
       2.333807781573e-01       1.497058625613e+03 
       2.412158731434e-01       1.418985446120e+03 
       2.493274365541e-01       1.351706595101e+03 
       2.577297445928e-01       1.296285163796e+03 
       2.664388391858e-01       1.247223189266e+03 
       2.754728513595e-01       1.197733570066e+03 
       2.848523938747e-01       1.145013956587e+03 
       2.946010430149e-01       1.092374754154e+03 
       3.047459364298e-01       1.044411579000e+03 
       3.153185238299e-01       1.002402990220e+03 
       3.263555215295e-01       9.630055832052e+02 
       3.379001425649e-01       9.233489314002e+02 
       3.500037049488e-01       8.838841780741e+02 
       3.627277674288e-01       8.468467598473e+02 
       3.761470147665e-01       8.124412912789e+02 
       3.903532301304e-01       7.791753372906e+02 
       4.054608811529e-01       7.461346817047e+02 
       4.216151646875e-01       7.142574051741e+02 
       4.390039108171e-01       6.836797457842e+02 
       4.578757537428e-01       6.533405679790e+02 
       4.785688846265e-01       6.233423230889e+02 
       5.015584986070e-01       5.936052695780e+02 
       5.275390469698e-01       5.634773983377e+02 
       5.575753615681e-01       5.326866402273e+02 
       5.933999117674e-01       5.004370351926e+02 
       6.380445209754e-01       4.657186597369e+02 
       6.972897783650e-01       4.267915995410e+02 
       7.830801656828e-01       3.808853691080e+02 
       9.195197250467e-01       3.248184109167e+02 
       1.135081494730e+00       2.615679613151e+02 
       1.427166889585e+00       2.033053383970e+02 
       1.796666020950e+00       1.541213988769e+02 
       2.261868410916e+00       1.135479164531e+02 
       2.847523620593e+00       8.109245283295e+01 
       3.584819846648e+00       5.615399963381e+01 
       4.513020801650e+00       3.779811848804e+01 
       5.681556571152e+00       2.481920476344e+01 
       7.152655945970e+00       1.595865563115e+01 
       9.004660332202e+00       1.008595648414e+01 
       1.133619571678e+01       6.286771649117e+00 
