# Matter power spectrum P(k) at redshift z=2
# for k=1.09496e-05 to 10.9642 h/Mpc,
# number of wavenumbers equal to 122
#    1:k (h/Mpc)              2:P (Mpc/h)^3        
       1.094958308929e-05       5.150473939157e+00 
       1.378470839966e-05       6.461551214168e+00 
       1.735391969851e-05       8.106363259177e+00 
       2.184729050268e-05       1.016986010863e+01 
       2.750410919268e-05       1.275860770118e+01 
       3.462562199142e-05       1.600628516191e+01 
       4.359107542418e-05       2.008057822947e+01 
       5.487791257894e-05       2.519180896238e+01 
       6.908719869184e-05       3.160374075448e+01 
       8.697563006284e-05       3.964708619573e+01 
       1.094958308929e-04       4.973636243445e+01 
       1.378470839966e-04       6.239084615172e+01 
       1.735391969851e-04       7.826050451273e+01 
       2.184729050268e-04       9.815781148384e+01 
       2.750410919268e-04       1.230962882082e+02 
       3.462562199142e-04       1.543362363443e+02 
       4.359107542418e-04       1.934372595256e+02 
       5.487791257894e-04       2.423155088087e+02 
       6.908719869184e-04       3.033010260375e+02 
       8.697563006284e-04       3.791875742769e+02 
       1.094958308929e-03       4.732649473771e+02 
       1.378470839966e-03       5.893201968549e+02 
       1.735391969851e-03       7.315757865178e+02 
       2.184729050268e-03       9.044846189298e+02 
       2.750410919268e-03       1.112301831559e+03 
       3.462562199142e-03       1.358446307792e+03 
       4.359107542418e-03       1.644463389170e+03 
       5.487791257894e-03       1.968591724847e+03 
       6.908719869184e-03       2.323883925405e+03 
       8.697563006284e-03       2.696046938992e+03 
       1.094958308929e-02       3.060761000428e+03 
       1.378470839966e-02       3.382542667309e+03 
       1.735391969736e-02       3.615219070613e+03 
       2.184728761553e-02       3.709383325982e+03 
       2.750304937506e-02       3.631568593730e+03 
       3.454474211186e-02       3.396329015008e+03 
       4.206514358277e-02       3.117176719329e+03 
       4.764211457359e-02       2.929711866144e+03 
       5.190388950376e-02       2.799345298521e+03 
       5.555523459207e-02       2.693552085461e+03 
       5.888274826203e-02       2.599420844765e+03 
       6.202403915466e-02       2.510902452125e+03 
       6.505607573125e-02       2.424999577087e+03 
       6.802688239804e-02       2.340077862899e+03 
       7.096897368879e-02       2.255545842825e+03 
       7.390582597318e-02       2.171383124558e+03 
       7.685531010592e-02       2.088008363267e+03 
       7.983165226698e-02       2.006101590221e+03 
       8.284662166386e-02       1.926452558153e+03 
       8.591028478015e-02       1.849870497204e+03 
       8.903150328088e-02       1.777060415710e+03 
       9.221827338164e-02       1.708514609240e+03 
       9.547796335454e-02       1.644422080053e+03 
       9.881748338001e-02       1.584655982079e+03 
       1.022434091380e-01       1.528721818197e+03 
       1.057620729441e-01       1.475823633413e+03 
       1.093796315987e-01       1.424943403742e+03 
       1.131021172038e-01       1.374998913971e+03 
       1.169354753370e-01       1.324974035862e+03 
       1.208855937491e-01       1.274133464700e+03 
       1.249583239473e-01       1.222154954985e+03 
       1.291594974893e-01       1.169215239541e+03 
       1.334949384559e-01       1.115994962017e+03 
       1.379704733342e-01       1.063526010697e+03 
       1.425919393868e-01       1.012953601659e+03 
       1.473651924848e-01       9.652585973868e+02 
       1.522961153166e-01       9.210117386725e+02 
       1.573906268484e-01       8.801658527179e+02 
       1.626546938842e-01       8.421344967233e+02 
       1.680943455607e-01       8.059233277939e+02 
       1.737156915978e-01       7.704298489935e+02 
       1.795249451236e-01       7.348743351691e+02 
       1.855284508848e-01       6.989948134739e+02 
       1.917327196668e-01       6.631813378443e+02 
       1.981444697599e-01       6.283206908840e+02 
       2.047706763542e-01       5.952757807661e+02 
       2.116186298104e-01       5.646122100154e+02 
       2.186960038671e-01       5.362465349095e+02 
       2.260109350092e-01       5.094817827781e+02 
       2.335721144622e-01       4.835662549562e+02 
       2.413888946078e-01       4.581666928368e+02 
       2.494714120677e-01       4.332991118615e+02 
       2.578307303108e-01       4.092296131567e+02 
       2.664790054415e-01       3.864180752688e+02 
       2.754296798925e-01       3.650744183941e+02 
       2.846977101542e-01       3.449586133472e+02 
       2.942998365413e-01       3.257397762529e+02 
       3.042549054939e-01       3.071470191854e+02 
       3.145842582728e-01       2.891851666877e+02 
       3.253122044969e-01       2.721059902836e+02 
       3.364666052864e-01       2.559436955420e+02 
       3.480795996220e-01       2.406212756857e+02 
       3.601885200776e-01       2.259466205065e+02 
       3.728370621955e-01       2.118462309699e+02 
       3.860767983664e-01       1.983788825531e+02 
       3.999691668886e-01       1.855733532923e+02 
       4.145881277428e-01       1.733271247077e+02 
       4.300237718121e-01       1.615773317327e+02 
       4.463873230371e-01       1.503112956950e+02 
       4.638182251261e-01       1.395062858090e+02 
       4.824944339997e-01       1.291085047029e+02 
       5.026477954789e-01       1.190687054088e+02 
       5.245877814058e-01       1.093462095105e+02 
       5.487395383412e-01       9.989226181615e+01 
       5.757076350029e-01       9.064069237042e+01 
       6.063885680200e-01       8.152034636742e+01 
       6.421818761623e-01       7.243303651460e+01 
       6.854156403812e-01       6.325302074695e+01 
       7.402746388207e-01       5.380037591927e+01 
       8.149710601770e-01       4.384423535177e+01 
       9.267069541953e-01       3.321654188448e+01 
       1.107479224244e+00       2.243727777178e+01 
       1.380821640924e+00       1.365809702423e+01 
       1.737710226401e+00       8.048903100242e+00 
       2.187641058285e+00       4.689773989857e+00 
       2.754076908656e+00       2.706789983382e+00 
       3.467177406340e+00       1.549017373190e+00 
       4.364917744040e+00       8.796535512265e-01 
       5.495105868363e+00       4.960636235393e-01 
       6.917928418181e+00       2.779754977815e-01 
       8.709155882621e+00       1.548696513881e-01 
       1.096417765591e+01       8.582749194591e-02 
