# Matter power spectrum P(k) at redshift z=1.5
# for k=9.71536e-06 to 12.2475 h/Mpc,
# number of wavenumbers equal to 123
#    1:k (h/Mpc)              2:P (Mpc/h)^3        
       9.715359690731e-06       1.662708458147e+01 
       1.223091319938e-05       2.073315236106e+01 
       1.539780743615e-05       2.585317702356e+01 
       1.938469106728e-05       3.223753191261e+01 
       2.440388018438e-05       4.019836435828e+01 
       3.072266491050e-05       5.012483893743e+01 
       3.867754357387e-05       6.250207867872e+01 
       4.869214247092e-05       7.793471061442e+01 
       6.129977551134e-05       9.717610811368e+01 
       7.717184512850e-05       1.211645473314e+02 
       9.715359690731e-05       1.510677800485e+02 
       1.223091319938e-04       1.883375262099e+02 
       1.539780743615e-04       2.347753805954e+02 
       1.938469106728e-04       2.926109987184e+02 
       2.440388018438e-04       3.645920313663e+02 
       3.072266491050e-04       4.540822217632e+02 
       3.867754357387e-04       5.651586016536e+02 
       4.869214247092e-04       7.026903048565e+02 
       6.129977551134e-04       8.723717363437e+02 
       7.717184512850e-04       1.080677137467e+03 
       9.715359690731e-04       1.334706256125e+03 
       1.223091319938e-03       1.641875949519e+03 
       1.539780743615e-03       2.009299931687e+03 
       1.938469106728e-03       2.442575650847e+03 
       2.440388018438e-03       2.944047363572e+03 
       3.072266491050e-03       3.510529123083e+03 
       3.867754357387e-03       4.130649262909e+03 
       4.869214247092e-03       4.781717489085e+03 
       6.129977551134e-03       5.424559104186e+03 
       7.717184512850e-03       6.009444147394e+03 
       9.715359690731e-03       6.463389217533e+03 
       1.223091319938e-02       6.699315837102e+03 
       1.539780743615e-02       6.621823727650e+03 
       1.938469105426e-02       6.151478464069e+03 
       2.440386169153e-02       5.277553754171e+03 
       3.071840923785e-02       4.134973438690e+03 
       3.845725296551e-02       3.051247757525e+03 
       4.591774535047e-02       2.426722937362e+03 
       5.126302448823e-02       2.175594520038e+03 
       5.550579607389e-02       2.048288001495e+03 
       5.921816886020e-02       1.964257837788e+03 
       6.264087691865e-02       1.894152426212e+03 
       6.589511810889e-02       1.824519924068e+03 
       6.905101733032e-02       1.748664476523e+03 
       7.215342890852e-02       1.663764924890e+03 
       7.523331072136e-02       1.569617049140e+03 
       7.831336674238e-02       1.467861359596e+03 
       8.141110770548e-02       1.361482843669e+03 
       8.454063043472e-02       1.254338384461e+03 
       8.771371089233e-02       1.150376168424e+03 
       9.094050633871e-02       1.053463125534e+03 
       9.423002326320e-02       9.667207507358e+02 
       9.759043883086e-02       8.923834127462e+02 
       1.010293272994e-01       8.315130136744e+02 
       1.045538227868e-01       7.841473586546e+02 
       1.081707381909e-01       7.490662016308e+02 
       1.118866531466e-01       7.241395427079e+02 
       1.157079796381e-01       7.063044899658e+02 
       1.196410111965e-01       6.917868042809e+02 
       1.236919598692e-01       6.766048747428e+02 
       1.278669840146e-01       6.570547496685e+02 
       1.321722092155e-01       6.304627673648e+02 
       1.366137441066e-01       5.959333276248e+02 
       1.411976925750e-01       5.546465481493e+02 
       1.459301635714e-01       5.096413252632e+02 
       1.508172796272e-01       4.649260974316e+02 
       1.558651850796e-01       4.245377373234e+02 
       1.610800549478e-01       3.914202108736e+02 
       1.664681053693e-01       3.668624911794e+02 
       1.720356064801e-01       3.502415558913e+02 
       1.777888986109e-01       3.392202463107e+02 
       1.837344126562e-01       3.303104327881e+02 
       1.898786954742e-01       3.199425703641e+02 
       1.962284411686e-01       3.051947382951e+02 
       2.027905291183e-01       2.855419783887e+02 
       2.095720696439e-01       2.629830601873e+02 
       2.165804582484e-01       2.408814286121e+02 
       2.238234394563e-01       2.221035596374e+02 
       2.313091814004e-01       2.079656330655e+02 
       2.390463625039e-01       1.980824684110e+02 
       2.470442718763e-01       1.904676585082e+02 
       2.553129254219e-01       1.824076429111e+02 
       2.638632001762e-01       1.722367068245e+02 
       2.727069900695e-01       1.602076211892e+02 
       2.818573872321e-01       1.480302955376e+02 
       2.913288941597e-01       1.376556199549e+02 
       3.011376736521e-01       1.297443515669e+02 
       3.113018455611e-01       1.233273449990e+02 
       3.218418422208e-01       1.169614333190e+02 
       3.327808382702e-01       1.097641429001e+02 
       3.441452758239e-01       1.021822047521e+02 
       3.559655132053e-01       9.528927207287e+01 
       3.682766356513e-01       8.954909559501e+01 
       3.811194809327e-01       8.447599299381e+01 
       3.945419539064e-01       7.931400599477e+01 
       4.086007351198e-01       7.404849117998e+01 
       4.233635354156e-01       6.910760240322e+01 
       4.389121205044e-01       6.468928279293e+01 
       4.553464429038e-01       6.055827985868e+01 
       4.727904020176e-01       5.643904638101e+01 
       4.914000583690e-01       5.247867846342e+01 
       5.113756529495e-01       4.882625733380e+01 
       5.329797192948e-01       4.528302207832e+01 
       5.565653181731e-01       4.182923997978e+01 
       5.826218225509e-01       3.852608932349e+01 
       6.118526730278e-01       3.528614786417e+01 
       6.453148169173e-01       3.210004412670e+01 
       6.846853207138e-01       2.892584219709e+01 
       7.328103594254e-01       2.570828412954e+01 
       7.949290364288e-01       2.237144466925e+01 
       8.815651319942e-01       1.881724158633e+01 
       1.014743598918e+00       1.497544985242e+01 
       1.230540416150e+00       1.109558352973e+01 
       1.542045820487e+00       7.952968578203e+00 
       1.941099940515e+00       5.755065790255e+00 
       2.443698616020e+00       4.207863251398e+00 
       3.076434285013e+00       3.087425002697e+00 
       3.873001299118e+00       2.256576188949e+00 
       4.875819755371e+00       1.631274262633e+00 
       6.138293393364e+00       1.159003273372e+00 
       7.727653537955e+00       8.053178415565e-01 
       9.728539412472e+00       5.454845957631e-01 
       1.224750548600e+01       3.597130947752e-01 
