# Matter power spectrum P(k) at redshift z=0
# for k=8.63426e-06 to 10.884 h/Mpc,
# number of wavenumbers equal to 123
#    1:k (h/Mpc)              2:P (Mpc/h)^3        
       8.634259274905e-06       8.169042671284e+01 
       1.086988841320e-05       1.014986156688e+02 
       1.368437874674e-05       1.261096198062e+02 
       1.722761214889e-05       1.566879119933e+02 
       2.168827871877e-05       1.946797933565e+02 
       2.730392521713e-05       2.418821361377e+02 
       3.437360529758e-05       3.005262630526e+02 
       4.327380520410e-05       3.733829826016e+02 
       5.447849303648e-05       4.638912220678e+02 
       6.858435927987e-05       5.763167611326e+02 
       8.634259274905e-05       7.159459525206e+02 
       1.086988841320e-04       8.893199887675e+02 
       1.368437874674e-04       1.104513814846e+03 
       1.722761214889e-04       1.371459564758e+03 
       2.168827871877e-04       1.702305996472e+03 
       2.730392521713e-04       2.111790180290e+03 
       3.437360529758e-04       2.617574825383e+03 
       4.327380520410e-04       3.240478689283e+03 
       5.447849303648e-04       4.004508218467e+03 
       6.858435927987e-04       4.936575701042e+03 
       8.634259274905e-04       6.065665177193e+03 
       1.086988841320e-03       7.420891365307e+03 
       1.368437874674e-03       9.027853652785e+03 
       1.722761214889e-03       1.090304956417e+04 
       2.168827871877e-03       1.304609250729e+04 
       2.730392521713e-03       1.542990783955e+04 
       3.437360529758e-03       1.799015232268e+04 
       4.327380520410e-03       2.061311973453e+04 
       5.447849303648e-03       2.309709829379e+04 
       6.858435927987e-03       2.526253183769e+04 
       8.634259274905e-03       2.679089192198e+04 
       1.086988841320e-02       2.734553385068e+04 
       1.368437874674e-02       2.658248373756e+04 
       1.722761213025e-02       2.426322799711e+04 
       2.168825521383e-02       2.045197816827e+04 
       2.729901677108e-02       1.579168317667e+04 
       3.413961235830e-02       1.160350138860e+04 
       4.057413554665e-02       9.303445143644e+03 
       4.517795614970e-02       8.363899280461e+03 
       4.886006496637e-02       7.861227339605e+03 
       5.209493107386e-02       7.510440875037e+03 
       5.508419266134e-02       7.206527999010e+03 
       5.793034840617e-02       6.903740274693e+03 
       6.069311228081e-02       6.579831182145e+03 
       6.341087384115e-02       6.227484135484e+03 
       6.611023438458e-02       5.848288346307e+03 
       6.881076617363e-02       5.449701093286e+03 
       7.152760586842e-02       5.043770985959e+03 
       7.427296769972e-02       4.643842433035e+03 
       7.705707572892e-02       4.263585625585e+03 
       7.988876414833e-02       3.915592739984e+03 
       8.277587811846e-02       3.608723024151e+03 
       8.572554957261e-02       3.349228975233e+03 
       8.874439174437e-02       3.138538016806e+03 
       9.183863916056e-02       2.974764382774e+03 
       9.501425000753e-02       2.851616563418e+03 
       9.827698188987e-02       2.760088240241e+03 
       1.016324483667e-01       2.688324338696e+03 
       1.050861613518e-01       2.622988564001e+03 
       1.086435629773e-01       2.550643884117e+03 
       1.123100495500e-01       2.460483977353e+03 
       1.160909895792e-01       2.346216878802e+03 
       1.199917374294e-01       2.207542237199e+03 
       1.240176438619e-01       2.051526748673e+03 
       1.281740645425e-01       1.889466633844e+03 
       1.324663674689e-01       1.734956906845e+03 
       1.368999401914e-01       1.599846311590e+03 
       1.414801976535e-01       1.491357201699e+03 
       1.462125914460e-01       1.411031656624e+03 
       1.511026212494e-01       1.354328414126e+03 
       1.561558492269e-01       1.311773518736e+03 
       1.613779181220e-01       1.271639268495e+03 
       1.667745738086e-01       1.223502005343e+03 
       1.723516930430e-01       1.161330906041e+03 
       1.781153171760e-01       1.086549996604e+03 
       1.840716926070e-01       1.007211821452e+03 
       1.902273188056e-01       9.338233482728e+02 
       1.965890048025e-01       8.733900592280e+02 
       2.031639351677e-01       8.271759045738e+02 
       2.099597466674e-01       7.917787667504e+02 
       2.169846170365e-01       7.606093001832e+02 
       2.242473676423e-01       7.265526896222e+02 
       2.317575822735e-01       6.867071167967e+02 
       2.395257449037e-01       6.438931126114e+02 
       2.475634000882e-01       6.033330616423e+02 
       2.558833407291e-01       5.692113776344e+02 
       2.644998293677e-01       5.417398614758e+02 
       2.734288610488e-01       5.171092718816e+02 
       2.826884783411e-01       4.918893270755e+02 
       2.922991525178e-01       4.651418192958e+02 
       3.022842495885e-01       4.387736139454e+02 
       3.126706063657e-01       4.152927958537e+02 
       3.234892508697e-01       3.947318448602e+02 
       3.347763143953e-01       3.754271590344e+02 
       3.465742014588e-01       3.559390924590e+02 
       3.589331117638e-01       3.369811734460e+02 
       3.719130504076e-01       3.193414779783e+02 
       3.855865273687e-01       3.030034929569e+02 
       4.000422495409e-01       2.872944273084e+02 
       4.153902741292e-01       2.719240795791e+02 
       4.317693682796e-01       2.572521755521e+02 
       4.493577955687e-01       2.433161701892e+02 
       4.683896008181e-01       2.296764471295e+02 
       4.891800515497e-01       2.164051247219e+02 
       5.121669983728e-01       2.034413528945e+02 
       5.379813262990e-01       1.905834316289e+02 
       5.675737411186e-01       1.777270845725e+02 
       6.024581921032e-01       1.646443191261e+02 
       6.452154530871e-01       1.510435510120e+02 
       7.006208167979e-01       1.364737697113e+02 
       7.783117802052e-01       1.202450743356e+02 
       8.984114103138e-01       1.015781580869e+02 
       1.092701192922e+00       8.105345452921e+01 
       1.370329606590e+00       6.248709297360e+01 
       1.724992655111e+00       4.770548969888e+01 
       2.171636210905e+00       3.600542441220e+01 
       2.733928010284e+00       2.673494805168e+01 
       3.441811446162e+00       1.944964571492e+01 
       4.332983892178e+00       1.381764366942e+01 
       5.454903530757e+00       9.565974447338e+00 
       6.867316673756e+00       6.451361252364e+00 
       8.645439471429e+00       4.244792383071e+00 
       1.088396344671e+01       2.732175243773e+00 
