# Matter power spectrum P(k) at redshift z=1.5
# for k=9.88293e-06 to 12.4591 h/Mpc,
# number of wavenumbers equal to 123
#    1:k (h/Mpc)              2:P (Mpc/h)^3        
       9.882933491091e-06       1.844411922932e+01 
       1.244187611501e-05       2.286266829872e+01 
       1.566339401158e-05       2.833970209023e+01 
       1.971904475612e-05       3.512875692958e+01 
       2.482480653978e-05       4.354403614526e+01 
       3.125257979581e-05       5.397494367023e+01 
       3.934466688906e-05       6.690396295298e+01 
       4.953200096522e-05       8.292882962572e+01 
       6.235709471213e-05       1.027897266284e+02 
       7.850293113875e-05       1.274027488127e+02 
       9.882933491091e-05       1.579006961761e+02 
       1.244187611501e-04       1.956823250842e+02 
       1.566339401158e-04       2.424709469518e+02 
       1.971904475612e-04       3.003822798762e+02 
       2.482480653978e-04       3.719995870487e+02 
       3.125257979581e-04       4.604503149243e+02 
       3.934466688906e-04       5.694719421814e+02 
       4.953200096522e-04       7.034452902729e+02 
       6.235709471213e-04       8.673636736809e+02 
       7.850293113875e-04       1.066703459903e+03 
       9.882933491091e-04       1.307171878050e+03 
       1.244187611501e-03       1.594299973645e+03 
       1.566339401158e-03       1.932732547411e+03 
       1.971904475612e-03       2.324948313889e+03 
       2.482480653978e-03       2.769506041169e+03 
       3.125257979581e-03       3.259120520460e+03 
       3.934466688906e-03       3.778624981816e+03 
       4.953200096522e-03       4.303060852197e+03 
       6.235709471213e-03       4.796575005213e+03 
       7.850293113875e-03       5.211829864165e+03 
       9.882933491091e-03       5.495426004097e+03 
       1.244187611501e-02       5.586511692888e+03 
       1.566339401158e-02       5.427444317237e+03 
       1.971904475383e-02       4.978983717928e+03 
       2.482480152400e-02       4.251342556184e+03 
       3.125093449230e-02       3.346043531436e+03 
       3.923021489788e-02       2.479200476574e+03 
       4.756718756958e-02       1.927861529639e+03 
       5.367308691591e-02       1.695270763402e+03 
       5.838243016760e-02       1.574138976503e+03 
       6.243876261004e-02       1.490121223099e+03 
       6.614611766118e-02       1.418718989361e+03 
       6.965217183622e-02       1.349754749327e+03 
       7.304021305434e-02       1.278763606873e+03 
       7.636252402076e-02       1.204243328479e+03 
       7.965466761539e-02       1.126481053010e+03 
       8.294241804847e-02       1.046907564686e+03 
       8.624545726908e-02       9.676184680440e+02 
       8.957949547798e-02       8.909800122462e+02 
       9.295755992722e-02       8.192415463466e+02 
       9.639081564386e-02       7.543943551918e+02 
       9.988910845717e-02       6.977455811701e+02 
       1.034613358227e-01       6.500104468967e+02 
       1.071157067461e-01       6.111991615100e+02 
       1.108599279010e-01       5.805862798428e+02 
       1.147013391914e-01       5.568443271893e+02 
       1.186470137885e-01       5.381137952557e+02 
       1.227038326432e-01       5.221277512984e+02 
       1.268785403104e-01       5.064829921744e+02 
       1.311777868877e-01       4.890233275831e+02 
       1.356081595438e-01       4.680794872259e+02 
       1.401762062337e-01       4.429772695284e+02 
       1.448884536099e-01       4.141886823524e+02 
       1.497514207549e-01       3.832435107176e+02 
       1.547716300973e-01       3.523262842928e+02 
       1.599556167082e-01       3.237261134773e+02 
       1.653099370659e-01       2.992336313338e+02 
       1.708411783069e-01       2.797150682479e+02 
       1.765559689401e-01       2.650132139169e+02 
       1.824609919737e-01       2.539727756182e+02 
       1.885630013868e-01       2.447385641872e+02 
       1.948688428661e-01       2.353078566366e+02 
       2.013854797210e-01       2.241072149894e+02 
       2.081200248888e-01       2.105903904014e+02 
       2.150797799493e-01       1.955424089747e+02 
       2.222722820912e-01       1.804815135323e+02 
       2.297053600191e-01       1.670305829978e+02 
       2.373871998690e-01       1.561049040127e+02 
       2.453264223305e-01       1.474985620993e+02 
       2.535321723594e-01       1.402417842035e+02 
       2.620142231430e-01       1.332914124825e+02 
       2.707830963543e-01       1.258524658334e+02 
       2.798502012518e-01       1.176929188627e+02 
       2.892279958690e-01       1.094305077016e+02 
       2.989301744587e-01       1.019494626767e+02 
       3.089718865684e-01       9.559077457881e+01 
       3.193699947309e-01       9.015995705569e+01 
       3.301433798834e-01       8.507145187695e+01 
       3.413133064800e-01       7.984456660626e+01 
       3.529038631002e-01       7.460111864434e+01 
       3.649424995975e-01       6.963402488712e+01 
       3.774606890606e-01       6.519956468323e+01 
       3.904947529811e-01       6.121112688492e+01 
       4.040869024031e-01       5.736595791525e+01 
       4.182865686104e-01       5.358767422028e+01 
       4.331521274468e-01       5.000534418962e+01 
       4.487531671611e-01       4.670823309817e+01 
       4.651735197598e-01       4.359707645275e+01 
       4.825153856773e-01       4.061324062168e+01 
       5.009050580975e-01       3.777556775037e+01 
       5.205010452167e-01       3.507786602238e+01 
       5.415058872220e-01       3.251932189817e+01 
       5.641838469628e-01       3.005706061991e+01 
       5.888882792018e-01       2.769769024444e+01 
       6.161056210261e-01       2.542049743925e+01 
       6.465293265891e-01       2.320494578102e+01 
       6.811908376196e-01       2.103497054937e+01 
       7.217064220260e-01       1.888539474520e+01 
       7.707771752187e-01       1.672002923922e+01 
       8.332853716553e-01       1.449741803416e+01 
       9.188663725865e-01       1.215665334873e+01 
       1.047724972158e+00       9.646014279245e+00 
       1.256537023836e+00       7.076025614609e+00 
       1.568959160764e+00       4.926567646137e+00 
       1.974645150142e+00       3.445512302761e+00 
       2.485925867563e+00       2.441335387597e+00 
       3.129595238576e+00       1.742337406649e+00 
       3.939926974472e+00       1.243394037675e+00 
       4.960074188777e+00       8.807052267898e-01 
       6.244363440635e+00       6.149819688164e-01 
       7.861187815894e+00       4.210814047825e-01 
       9.896649108316e+00       2.817357829561e-01 
       1.245914305407e+01       1.839771941693e-01 
