# Matter power spectrum P(k) at redshift z=2
# for k=1.16255e-05 to 11.642 h/Mpc,
# number of wavenumbers equal to 122
#    1:k (h/Mpc)              2:P (Mpc/h)^3        
       1.162554682627e-05       4.718700588787e+00 
       1.463569632560e-05       5.916598745786e+00 
       1.842525002359e-05       7.418594576046e+00 
       2.319601547336e-05       9.301883423942e+00 
       2.920205333179e-05       1.166325258069e+01 
       3.676320701596e-05       1.462405411768e+01 
       4.628213553144e-05       1.833643013195e+01 
       5.826575653263e-05       2.299111479241e+01 
       7.335224153634e-05       2.882720183025e+01 
       9.234500088216e-05       3.614435956970e+01 
       1.162554682627e-04       4.531809116011e+01 
       1.463569632560e-04       5.681874633617e+01 
       1.842525002359e-04       7.123513557472e+01 
       2.319601547336e-04       8.930368497438e+01 
       2.920205333179e-04       1.119441222191e+02 
       3.676320701596e-04       1.403025586069e+02 
       4.628213553144e-04       1.758024062525e+02 
       5.826575653263e-04       2.202026432288e+02 
       7.335224153634e-04       2.756613773349e+02 
       9.234500088216e-04       3.448006090879e+02 
       1.162554682627e-03       4.307660260527e+02 
       1.463569632560e-03       5.372722905577e+02 
       1.842525002359e-03       6.685785194587e+02 
       2.319601547336e-03       8.294701849888e+02 
       2.920205333179e-03       1.024960484072e+03 
       3.676320701596e-03       1.259830862673e+03 
       4.628213553144e-03       1.534857767387e+03 
       5.826575653263e-03       1.855964799562e+03 
       7.335224153634e-03       2.218344942876e+03 
       9.234500088216e-03       2.612459496990e+03 
       1.162554682627e-02       3.018529567206e+03 
       1.463569632560e-02       3.403861086982e+03 
       1.842525001850e-02       3.721088715262e+03 
       2.319600645217e-02       3.913653976623e+03 
       2.919956866320e-02       3.935158269822e+03 
       3.661367921040e-02       3.787430291222e+03 
       4.407387112857e-02       3.582433963896e+03 
       4.946069881222e-02       3.438857471749e+03 
       5.367530841831e-02       3.333388496725e+03 
       5.733446961916e-02       3.244890066012e+03 
       6.069351403297e-02       3.163980556415e+03 
       6.387868929243e-02       3.085818685884e+03 
       6.696210896799e-02       3.007703665155e+03 
       6.998946474852e-02       2.928123170607e+03 
       7.299206101311e-02       2.846401056625e+03 
       7.599271855927e-02       2.762478007414e+03 
       7.900894963761e-02       2.676792253889e+03 
       8.205479139577e-02       2.590152555485e+03 
       8.514192609866e-02       2.503659458296e+03 
       8.828039757465e-02       2.418509475181e+03 
       9.147908693200e-02       2.335947125518e+03 
       9.474603837187e-02       2.257062486653e+03 
       9.808868811362e-02       2.182680716306e+03 
       1.015140286373e-01       2.113258752813e+03 
       1.050287284948e-01       2.048769959949e+03 
       1.086392208242e-01       1.988708895087e+03 
       1.123517693292e-01       1.932100454871e+03 
       1.161725177309e-01       1.877621718755e+03 
       1.201075269250e-01       1.823751786142e+03 
       1.241628029157e-01       1.769028503773e+03 
       1.283443178302e-01       1.712326623802e+03 
       1.326580258053e-01       1.653107930980e+03 
       1.371098751981e-01       1.591598560110e+03 
       1.417058183453e-01       1.528786431563e+03 
       1.464518199516e-01       1.466239112890e+03 
       1.513538650904e-01       1.405759319605e+03 
       1.564179677422e-01       1.348974288637e+03 
       1.616501807591e-01       1.296863454807e+03 
       1.670566081177e-01       1.249475510511e+03 
       1.726434203125e-01       1.205902223674e+03 
       1.784168737268e-01       1.164504196387e+03 
       1.843833348145e-01       1.123447558044e+03 
       1.905493099252e-01       1.081417388253e+03 
       1.969214816123e-01       1.037790520422e+03 
       2.035067522885e-01       9.932789006690e+02 
       2.103122961344e-01       9.495715522034e+02 
       2.173456202482e-01       9.084608904864e+02 
       2.246146361404e-01       8.708780653003e+02 
       2.321277428618e-01       8.366164355066e+02 
       2.398939233099e-01       8.046217325189e+02 
       2.479228556156e-01       7.734251469220e+02 
       2.562250419985e-01       7.419102855669e+02 
       2.648119581286e-01       7.100997405974e+02 
       2.736962268945e-01       6.789473654517e+02 
       2.828918216167e-01       6.495568701855e+02 
       2.924143052557e-01       6.224881182649e+02 
       3.022811141640e-01       5.972493744484e+02 
       3.125118976143e-01       5.727747503316e+02 
       3.231289279524e-01       5.484929147192e+02 
       3.341576011590e-01       5.245819217180e+02 
       3.456270544352e-01       5.017334246527e+02 
       3.575709369912e-01       4.802844271877e+02 
       3.700283838434e-01       4.598972091275e+02 
       3.830452621304e-01       4.400227574160e+02 
       3.966757884991e-01       4.205425092536e+02 
       4.109846597228e-01       4.017830444011e+02 
       4.260499056374e-01       3.838656312017e+02 
       4.419667785923e-01       3.665296075299e+02 
       4.588531630454e-01       3.495897220292e+02 
       4.768572700225e-01       3.330850689834e+02 
       4.961688627877e-01       3.170576560448e+02 
       5.170361158258e-01       3.013422690321e+02 
       5.397917934677e-01       2.858287460370e+02 
       5.648955073966e-01       2.704928923181e+02 
       5.930050974251e-01       2.551557846852e+02 
       6.251038311042e-01       2.396681953908e+02 
       6.627418141636e-01       2.237911119667e+02 
       7.085289104242e-01       2.071756311436e+02 
       7.672243896622e-01       1.892840406850e+02 
       8.483035575907e-01       1.692869670497e+02 
       9.716392019389e-01       1.460975304885e+02 
       1.171707455959e+00       1.197418841740e+02 
       1.465909455655e+00       9.436836828523e+01 
       1.845133748278e+00       7.310035770485e+01 
       2.322883161341e+00       5.531849671623e+01 
       2.924336637129e+00       4.045844151281e+01 
       3.681521705121e+00       2.840708710526e+01 
       4.634761228649e+00       1.914625477189e+01 
       5.834818688345e+00       1.245305495381e+01 
       7.345601519968e+00       7.871719914560e+00 
       9.247564418402e+00       4.868008565997e+00 
       1.164199384353e+01       2.961670181156e+00 
