# Matter power spectrum P(k) at redshift z=2.5
# for k=1.10446e-05 to 11.0581 h/Mpc,
# number of wavenumbers equal to 122
#    1:k (h/Mpc)              2:P (Mpc/h)^3        
       1.104456728046e-05       4.048113374975e+00 
       1.390428641165e-05       5.049197636173e+00 
       1.750445949649e-05       6.297843918116e+00 
       2.203680887985e-05       7.855270295732e+00 
       2.774269869369e-05       9.797830669721e+00 
       3.492598837724e-05       1.222075453300e+01 
       4.396921430013e-05       1.524280861522e+01 
       5.535396121906e-05       1.901210503198e+01 
       6.968650842215e-05       2.371333365602e+01 
       8.773011631185e-05       2.957675900211e+01 
       1.104456728046e-04       3.688939506443e+01 
       1.390428641165e-04       4.600884964260e+01 
       1.750445949649e-04       5.738041210790e+01 
       2.203680887985e-04       7.155801154485e+01 
       2.774269869369e-04       8.922967405423e+01 
       3.492598837724e-04       1.112479752845e+02 
       4.396921430013e-04       1.386656015563e+02 
       5.535396121906e-04       1.727753497935e+02 
       6.968650842215e-04       2.151525987561e+02 
       8.773011631185e-04       2.676966139359e+02 
       1.104456728046e-03       3.326454687486e+02 
       1.390428641165e-03       4.126119963855e+02 
       1.750445949649e-03       5.106067091975e+02 
       2.203680887985e-03       6.299004552960e+02 
       2.774269869369e-03       7.738303193337e+02 
       3.492598837724e-03       9.454188284014e+02 
       4.396921430013e-03       1.145855922837e+03 
       5.535396121906e-03       1.376671106704e+03 
       6.968650842215e-03       1.633990367358e+03 
       8.773011631185e-03       1.909134255051e+03 
       1.104456728046e-02       2.185145632678e+03 
       1.390428641165e-02       2.434278957341e+03 
       1.750445949599e-02       2.616441389263e+03 
       2.203680733895e-02       2.683747543926e+03 
       2.774202991538e-02       2.598376190895e+03 
       3.486743815348e-02       2.368732775860e+03 
       4.270247423987e-02       2.104520641659e+03 
       4.864822916619e-02       1.943278323868e+03 
       5.313037125102e-02       1.847268597480e+03 
       5.693905885641e-02       1.778940036128e+03 
       6.039450507882e-02       1.723541258268e+03 
       6.364782219867e-02       1.673942353979e+03 
       6.678248094527e-02       1.626100590653e+03 
       6.985009197555e-02       1.577582119789e+03 
       7.288535534718e-02       1.526964335237e+03 
       7.591318530421e-02       1.473593091024e+03 
       7.895245864229e-02       1.417426769651e+03 
       8.201814232060e-02       1.358953101297e+03 
       8.512257564736e-02       1.299070845405e+03 
       8.827628117078e-02       1.238991442194e+03 
       9.148849815738e-02       1.180092412735e+03 
       9.476754518555e-02       1.123765303123e+03 
       9.812107331727e-02       1.071279485184e+03 
       1.015562468125e-01       1.023608439258e+03 
       1.050798744296e-01       9.813392754351e+02 
       1.086985061382e-01       9.445661559923e+02 
       1.124185050656e-01       9.128530636085e+02 
       1.162461013591e-01       8.852332229491e+02 
       1.201874326411e-01       8.602860299432e+02 
       1.242485744199e-01       8.363001314016e+02 
       1.284355629601e-01       8.115141866417e+02 
       1.327544125363e-01       7.844282562734e+02 
       1.372111286139e-01       7.541156437518e+02 
       1.418117182455e-01       7.204659945560e+02 
       1.465621988051e-01       6.842787354626e+02 
       1.514686060765e-01       6.471357567469e+02 
       1.565370026403e-01       6.110553709468e+02 
       1.617734874664e-01       5.780057802909e+02 
       1.671842075883e-01       5.493494246320e+02 
       1.727753727210e-01       5.255387585151e+02 
       1.785532736715e-01       5.059764247197e+02 
       1.845243053833e-01       4.889332918019e+02 
       1.906949954554e-01       4.721734169010e+02 
       1.970720389806e-01       4.537801693584e+02 
       2.036623405655e-01       4.328098762966e+02 
       2.104730644358e-01       4.096369393126e+02 
       2.175116935950e-01       3.858437971856e+02 
       2.247860991180e-01       3.635568406414e+02 
       2.323046208220e-01       3.444202255890e+02 
       2.400761607982e-01       3.287960016379e+02 
       2.481102916163e-01       3.157026843181e+02 
       2.564173814709e-01       3.032572674627e+02 
       2.650087391418e-01       2.897007184555e+02 
       2.738967824520e-01       2.745516701947e+02 
       2.830952349737e-01       2.588225289394e+02 
       2.926193571480e-01       2.442020422353e+02 
       3.024862198571e-01       2.318388924235e+02 
       3.127150309903e-01       2.214419970144e+02 
       3.233275289182e-01       2.116699126764e+02 
       3.343484613689e-01       2.012796935642e+02 
       3.458061745232e-01       1.902191890776e+02 
       3.577333459621e-01       1.795655178619e+02 
       3.701679076082e-01       1.702463081670e+02 
       3.831542228136e-01       1.620517775773e+02 
       3.967446081559e-01       1.539851780307e+02 
       4.110013299583e-01       1.455681277833e+02 
       4.259992657402e-01       1.373627959369e+02 
       4.418295147364e-01       1.299833583907e+02 
       4.586043919596e-01       1.231155031811e+02 
       4.764644877240e-01       1.161395193105e+02 
       4.955888947524e-01       1.092762457514e+02 
       5.162104441590e-01       1.029101724090e+02 
       5.386391445089e-01       9.667137548980e+01 
       5.632996086540e-01       9.043158994302e+01 
       5.907934741428e-01       8.442361644817e+01 
       6.220089764689e-01       7.838168628394e+01 
       6.583252641659e-01       7.233228091632e+01 
       7.020212075754e-01       6.612128239769e+01 
       7.571603359699e-01       5.962897533949e+01 
       8.316501102122e-01       5.261108492949e+01 
       9.420092660732e-01       4.478454156216e+01 
       1.119913075442e+00       3.612938737159e+01 
       1.392885533958e+00       2.786469334421e+01 
       1.752592086043e+00       2.132884152912e+01 
       2.206371532986e+00       1.627581954268e+01 
       2.777657167000e+00       1.228159512539e+01 
       3.496863192782e+00       9.095903179494e+00 
       4.402289934961e+00       6.572732924199e+00 
       5.542154669208e+00       4.614032986881e+00 
       6.977159349159e+00       3.138650089672e+00 
       8.783723206794e+00       2.068558569859e+00 
       1.105805235520e+01       1.324171514909e+00 
