# Matter power spectrum P(k) at redshift z=1.5
# for k=8.90913e-06 to 11.2278 h/Mpc,
# number of wavenumbers equal to 123
#    1:k (h/Mpc)              2:P (Mpc/h)^3        
       8.909130917785e-06       2.126388577762e+01 
       1.121593130940e-05       2.643454885142e+01 
       1.412002094234e-05       3.286250469367e+01 
       1.777605317938e-05       4.085344834784e+01 
       2.237872506893e-05       5.078736606792e+01 
       2.817314567283e-05       6.313654147020e+01 
       3.546788901770e-05       7.848795760380e+01 
       4.465142678708e-05       9.757099686242e+01 
       5.621281585512e-05       1.212917532404e+02 
       7.076774234852e-05       1.507753834821e+02 
       8.909130917785e-05       1.874181466452e+02 
       1.121593130940e-04       2.329509190705e+02 
       1.412002094234e-04       2.895158946838e+02 
       1.777605317938e-04       3.597575452873e+02 
       2.237872506893e-04       4.469274247959e+02 
       2.817314567283e-04       5.549991406975e+02 
       3.546788901770e-04       6.887839882654e+02 
       4.465142678708e-04       8.540288634391e+02 
       5.621281585512e-04       1.057467787909e+03 
       7.076774234852e-04       1.306792186022e+03 
       8.909130917785e-04       1.610505641994e+03 
       1.121593130940e-03       1.977605316255e+03 
       1.412002094234e-03       2.416879456349e+03 
       1.777605317938e-03       2.935631618761e+03 
       2.237872506893e-03       3.537665702790e+03 
       2.817314567283e-03       4.220694771964e+03 
       3.546788901770e-03       4.973101920315e+03 
       4.465142678708e-03       5.769941359340e+03 
       5.621281585512e-03       6.568879482702e+03 
       7.076774234852e-03       7.306619144216e+03 
       8.909130917785e-03       7.895663426749e+03 
       1.121593130940e-02       8.226173618107e+03 
       1.412002094233e-02       8.175219968608e+03 
       1.777605308630e-02       7.640080059456e+03 
       2.237864620848e-02       6.609589902210e+03 
       2.816123614862e-02       5.263311926936e+03 
       3.503943309035e-02       4.035952141105e+03 
       4.097778661764e-02       3.382247561158e+03 
       4.526183923306e-02       3.090702679850e+03 
       4.877214833914e-02       2.922180192998e+03 
       5.189578895093e-02       2.800270660030e+03 
       5.480342144029e-02       2.694460941192e+03 
       5.758458619780e-02       2.589972256304e+03 
       6.029263716538e-02       2.479230606824e+03 
       6.296245620734e-02       2.359004276213e+03 
       6.561853549637e-02       2.228992117418e+03 
       6.827909199243e-02       2.091031923402e+03 
       7.095834401280e-02       1.948539044447e+03 
       7.366785563226e-02       1.805857836212e+03 
       7.641737305348e-02       1.667710258700e+03 
       7.921536746607e-02       1.538516320364e+03 
       8.206939991927e-02       1.422142303922e+03 
       8.498637374802e-02       1.321164063652e+03 
       8.797271340581e-02       1.237018111968e+03 
       9.103449362333e-02       1.169649094003e+03 
       9.417753411322e-02       1.117589872961e+03 
       9.740746979805e-02       1.078086312851e+03 
       1.007298032857e-01       1.047234535253e+03 
       1.041499442481e-01       1.020311991553e+03 
       1.076732390204e-01       9.923457667947e+02 
       1.113049928541e-01       9.588701248989e+02 
       1.150504866757e-01       9.168281522313e+02 
       1.189149898087e-01       8.653905676748e+02 
       1.229037698637e-01       8.061814149249e+02 
       1.270221008231e-01       7.430349091394e+02 
       1.312752702437e-01       6.809620613821e+02 
       1.356685864245e-01       6.248880174790e+02 
       1.402073863450e-01       5.784232952378e+02 
       1.448970451515e-01       5.430416426099e+02 
       1.497429879516e-01       5.177178710940e+02 
       1.547507046641e-01       4.992561722794e+02 
       1.599257686661e-01       4.832250995252e+02 
       1.652738599721e-01       4.649817991109e+02 
       1.708007936861e-01       4.411057664436e+02 
       1.765125544729e-01       4.113562341636e+02 
       1.824153378289e-01       3.785544134172e+02 
       1.885155989742e-01       3.469866760096e+02 
       1.948201102757e-01       3.201429497049e+02 
       2.013360282318e-01       2.995929161316e+02 
       2.080709712342e-01       2.845532892058e+02 
       2.150331095820e-01       2.721591431199e+02 
       2.222312695759e-01       2.589118310426e+02 
       2.296750540021e-01       2.429494705435e+02 
       2.373749819547e-01       2.248386718622e+02 
       2.453426517912e-01       2.069945990374e+02 
       2.535909321353e-01       1.919212232082e+02 
       2.621341873261e-01       1.801609528703e+02 
       2.709885456829e-01       1.702730944846e+02 
       2.801722216083e-01       1.603073031926e+02 
       2.897059061389e-01       1.492487869367e+02 
       2.996132454770e-01       1.379401408449e+02 
       3.099214338767e-01       1.277773748653e+02 
       3.206619568971e-01       1.192738095097e+02 
       3.318715348432e-01       1.115762206873e+02 
       3.435933363187e-01       1.037568784489e+02 
       3.558785616425e-01       9.586576430328e+01 
       3.687885410318e-01       8.857447223478e+01 
       3.823975623105e-01       8.205209814797e+01 
       3.967967536555e-01       7.589618881570e+01 
       4.120995272663e-01       6.978147254443e+01 
       4.284493925560e-01       6.398381816777e+01 
       4.460314729051e-01       5.863887851802e+01 
       4.650900073792e-01       5.344569940359e+01 
       4.859559020001e-01       4.843867982200e+01 
       5.090919199043e-01       4.367362897849e+01 
       5.351704652698e-01       3.901687103570e+01 
       5.652153031399e-01       3.448562063328e+01 
       6.008776054685e-01       2.999529483719e+01 
       6.450163067165e-01       2.549722072768e+01 
       7.030173540347e-01       2.089899292437e+01 
       7.859148487525e-01       1.611563563156e+01 
       9.163897178853e-01       1.121805779725e+01 
       1.125095606536e+00       6.866054805359e+00 
       1.413549334130e+00       3.942766433695e+00 
       1.779493805955e+00       2.234604478930e+00 
       2.240249727817e+00       1.256803135444e+00 
       2.820307310968e+00       7.020060123777e-01 
       3.550556542847e+00       3.896734801040e-01 
       4.469885857802e+00       2.150669158616e-01 
       5.627252894206e+00       1.180749608225e-01 
       7.084291667109e+00       6.451417118730e-02 
       8.918594804285e+00       3.509298550484e-02 
       1.122784563661e+01       1.900997689581e-02 
