# Matter power spectrum P(k) at redshift z=1.5
# for k=1.13553e-05 to 11.367 h/Mpc,
# number of wavenumbers equal to 122
#    1:k (h/Mpc)              2:P (Mpc/h)^3        
       1.135527312376e-05       1.191384795542e+01 
       1.429544189337e-05       1.482113363108e+01 
       1.799689507239e-05       1.843785927203e+01 
       2.265674854002e-05       2.293712012732e+01 
       2.852315648566e-05       2.853424409632e+01 
       3.590852652438e-05       3.549706327075e+01 
       4.520615654163e-05       4.415868843675e+01 
       5.691117923981e-05       5.493337166461e+01 
       7.164692976016e-05       6.833615754200e+01 
       9.019814055210e-05       8.500719502256e+01 
       1.135527312376e-04       1.057417052238e+02 
       1.429544189337e-04       1.315267242737e+02 
       1.799689507239e-04       1.635857655630e+02 
       2.265674854002e-04       2.034323628368e+02 
       2.852315648566e-04       2.529328375269e+02 
       3.590852652438e-04       3.143772184815e+02 
       4.520615654163e-04       3.905545278868e+02 
       5.691117923981e-04       4.848242487866e+02 
       7.164692976016e-04       6.011700788709e+02 
       9.019814055210e-04       7.442172634095e+02 
       1.135527312376e-03       9.191930900269e+02 
       1.429544189337e-03       1.131800913051e+03 
       1.799689507239e-03       1.387923944005e+03 
       2.265674854002e-03       1.692997418166e+03 
       2.852315648566e-03       2.050989899851e+03 
       3.590852652438e-03       2.463014569586e+03 
       4.520615654163e-03       2.925484210183e+03 
       5.691117923981e-03       3.427886996321e+03 
       7.164692976016e-03       3.943804638233e+03 
       9.019814055210e-03       4.452607631066e+03 
       1.135527312376e-02       4.905672828165e+03 
       1.429544189337e-02       5.247273046317e+03 
       1.799689507236e-02       5.414407757892e+03 
       2.265674837380e-02       5.349558386674e+03 
       2.852302724659e-02       5.026519956974e+03 
       3.589032783041e-02       4.486934826909e+03 
       4.459109068254e-02       3.884252226962e+03 
       5.196516456974e-02       3.469766763639e+03 
       5.730631766181e-02       3.219594173450e+03 
       6.170466195610e-02       3.035413841393e+03 
       6.562882920645e-02       2.881813631394e+03 
       6.928719251993e-02       2.744396971751e+03 
       7.278981735840e-02       2.616364892975e+03 
       7.620260393195e-02       2.494388626487e+03 
       7.956879239577e-02       2.377054308695e+03 
       8.291883048203e-02       2.263873204559e+03 
       8.627541820327e-02       2.155077710659e+03 
       8.965630830550e-02       2.051163697548e+03 
       9.307596434921e-02       1.952835580915e+03 
       9.654659439672e-02       1.860618245039e+03 
       1.000788231011e-01       1.774864807360e+03 
       1.036821440822e-01       1.695702876867e+03 
       1.073652332586e-01       1.622811146960e+03 
       1.111361710426e-01       1.555601157125e+03 
       1.150026029406e-01       1.493094148980e+03 
       1.189718573813e-01       1.434123793698e+03 
       1.230510331281e-01       1.377418189760e+03 
       1.272470646116e-01       1.321818861453e+03 
       1.315667709630e-01       1.266403990639e+03 
       1.360168928707e-01       1.210686680731e+03 
       1.406041202910e-01       1.154650408448e+03 
       1.453351133191e-01       1.098791787030e+03 
       1.502165180456e-01       1.043980138341e+03 
       1.552549788998e-01       9.912569989718e+02 
       1.604571487744e-01       9.415640393401e+02 
       1.658296980853e-01       8.955177416707e+02 
       1.713793238349e-01       8.532258503045e+02 
       1.771127596925e-01       8.142457006715e+02 
       1.830367880707e-01       7.777661147016e+02 
       1.891582551557e-01       7.428041121579e+02 
       1.954840898349e-01       7.085335775279e+02 
       2.020213274547e-01       6.745344819794e+02 
       2.087771393382e-01       6.409244702658e+02 
       2.157588689942e-01       6.080997821151e+02 
       2.229740759645e-01       5.768939182040e+02 
       2.304305882904e-01       5.478138383362e+02 
       2.381365646431e-01       5.209025685182e+02 
       2.461005672690e-01       4.958444292707e+02 
       2.543316470590e-01       4.720506380230e+02 
       2.628394422877e-01       4.490139726202e+02 
       2.716342929001e-01       4.266793667373e+02 
       2.807273726758e-01       4.052869056770e+02 
       2.901308422146e-01       3.849583639470e+02 
       2.998580265058e-01       3.657872576346e+02 
       3.099236219223e-01       3.478330402365e+02 
       3.203439389125e-01       3.308522695022e+02 
       3.311371885581e-01       3.146165092114e+02 
       3.423238236859e-01       2.991066330752e+02 
       3.539269486111e-01       2.843052450519e+02 
       3.659728161809e-01       2.702980943700e+02 
       3.784914370858e-01       2.570530974440e+02 
       3.915173351682e-01       2.444439289285e+02 
       4.050904948090e-01       2.324420430063e+02 
       4.192575641826e-01       2.209585871511e+02 
       4.340734039692e-01       2.100407368769e+02 
       4.496031094375e-01       1.996287227544e+02 
       4.659246918576e-01       1.896816851857e+02 
       4.831326951266e-01       1.801335965316e+02 
       5.013431662091e-01       1.709914203166e+02 
       5.207006307312e-01       1.621992274401e+02 
       5.413881162216e-01       1.537101938537e+02 
       5.636419455467e-01       1.454968009011e+02 
       5.877742514568e-01       1.375080598004e+02 
       6.142084800805e-01       1.296923391038e+02 
       6.435377417776e-01       1.219878858921e+02 
       6.766254862647e-01       1.143204222897e+02 
       7.147894427111e-01       1.065928913652e+02 
       7.601610727149e-01       9.867148417534e+01 
       8.164440084921e-01       9.035200196039e+01 
       8.906436116882e-01       8.132207273097e+01 
       9.971549790792e-01       7.111397361981e+01 
       1.165409211579e+00       5.928088930388e+01 
       1.433546443935e+00       4.660503912248e+01 
       1.801596371046e+00       3.552690293123e+01 
       2.268014827965e+00       2.664137810931e+01 
       2.855261270567e+00       1.955553857463e+01 
       3.594560970704e+00       1.397773626779e+01 
       4.525284150263e+00       9.694152832172e+00 
       5.696995212356e+00       6.513450943228e+00 
       7.172092043704e+00       4.244278510849e+00 
       9.029128929546e+00       2.691365029693e+00 
       1.136699985577e+01       1.668203778419e+00 
