# Matter power spectrum P(k) at redshift z=1.5
# for k=9.07149e-06 to 11.4324 h/Mpc,
# number of wavenumbers equal to 123
#    1:k (h/Mpc)              2:P (Mpc/h)^3        
       9.071486039899e-06       3.314066803006e+01 
       1.142032429837e-05       4.106298219561e+01 
       1.437733647014e-05       5.087903724888e+01 
       1.809999423618e-05       6.304155209520e+01 
       2.278654269725e-05       7.811125197604e+01 
       2.868655764850e-05       9.678283986902e+01 
       3.611423640060e-05       1.199167647537e+02 
       4.546512993225e-05       1.485787426313e+02 
       5.723720742224e-05       1.840881021775e+02 
       7.205737492399e-05       2.280775388260e+02 
       9.071486039899e-05       2.825660496077e+02 
       1.142032429837e-04       3.500473966107e+02 
       1.437733647014e-04       4.335962191039e+02 
       1.809999423618e-04       5.369925231403e+02 
       2.278654269725e-04       6.648629571770e+02 
       2.868655764850e-04       8.228318747045e+02 
       3.611423640060e-04       1.017666087082e+03 
       4.546512993226e-04       1.257383371024e+03 
       5.723720742224e-04       1.551279724608e+03 
       7.205737492399e-04       1.909822624959e+03 
       9.071486039899e-04       2.344362446907e+03 
       1.142032429837e-03       2.866584152676e+03 
       1.437733647014e-03       3.487438414244e+03 
       1.809999423618e-03       4.215136736874e+03 
       2.278654269725e-03       5.052265877165e+03 
       2.868655764850e-03       5.992278403525e+03 
       3.611423640060e-03       7.015216124701e+03 
       4.546512993226e-03       8.083065066427e+03 
       5.723720742224e-03       9.127744920528e+03 
       7.205737492399e-03       1.007812696141e+04 
       9.071486039899e-03       1.081927405179e+04 
       1.142032429837e-02       1.122391727612e+04 
       1.437733647013e-02       1.116063160379e+04 
       1.809999413683e-02       1.053110196693e+04 
       2.278645952583e-02       9.338746509467e+03 
       2.867411917654e-02       7.777479345146e+03 
       3.567061815712e-02       6.296105808501e+03 
       4.169544168105e-02       5.421415514444e+03 
       4.604412800048e-02       4.964310658747e+03 
       4.960989534507e-02       4.656395227514e+03 
       5.278405930851e-02       4.409650667684e+03 
       5.573935228687e-02       4.189753916134e+03 
       5.856648717958e-02       3.981113067062e+03 
       6.131955293823e-02       3.776394151905e+03 
       6.403392979247e-02       3.573026157575e+03 
       6.673446974084e-02       3.371080978937e+03 
       6.943966344732e-02       3.172515611658e+03 
       7.216394687217e-02       2.980072041822e+03 
       7.491906391884e-02       2.797000666755e+03 
       7.771491440466e-02       2.626269109830e+03 
       8.056010458177e-02       2.470334154976e+03 
       8.346231723306e-02       2.330803872390e+03 
       8.642856775395e-02       2.208133611427e+03 
       8.946538559939e-02       2.101572154683e+03 
       9.257894534473e-02       2.009142477086e+03 
       9.577516279317e-02       1.927933402288e+03 
       9.905976624802e-02       1.854221992579e+03 
       1.024383497704e-01       1.783977168999e+03 
       1.059164131460e-01       1.713467108845e+03 
       1.094993919257e-01       1.639701762874e+03 
       1.131926800114e-01       1.561081918297e+03 
       1.170016466648e-01       1.477735085553e+03 
       1.209316494217e-01       1.391511839059e+03 
       1.249880441323e-01       1.305543368028e+03 
       1.291761931730e-01       1.223483455929e+03 
       1.335014727672e-01       1.148588864741e+03 
       1.379692802750e-01       1.082888312977e+03 
       1.425850422722e-01       1.026662483934e+03 
       1.473542242077e-01       9.784385137880e+02 
       1.522823424130e-01       9.354020381069e+02 
       1.573749792220e-01       8.941693432429e+02 
       1.626378019574e-01       8.518967300933e+02 
       1.680765865299e-01       8.071834616016e+02 
       1.736972464013e-01       7.604846067172e+02 
       1.795058676756e-01       7.140835839215e+02 
       1.855087511057e-01       6.705073161122e+02 
       1.917124618570e-01       6.316825239548e+02 
       1.981238879484e-01       5.979415984516e+02 
       2.047503084248e-01       5.678443126511e+02 
       2.115994724938e-01       5.393870082288e+02 
       2.186796911309e-01       5.113007138088e+02 
       2.259999430138e-01       4.831191609213e+02 
       2.335699971379e-01       4.552200529674e+02 
       2.414005551142e-01       4.288504843302e+02 
       2.495034170167e-01       4.049382796921e+02 
       2.578916757812e-01       3.832507795862e+02 
       2.665799466749e-01       3.630295800750e+02 
       2.755846403592e-01       3.434575727650e+02 
       2.849242907737e-01       3.242831769362e+02 
       2.946199527205e-01       3.060399813697e+02 
       3.046956890485e-01       2.890067038636e+02 
       3.151791743014e-01       2.732206106185e+02 
       3.261024515213e-01       2.582797391721e+02 
       3.375028929658e-01       2.438766443349e+02 
       3.494244359904e-01       2.301107181298e+02 
       3.619191957505e-01       2.171522295843e+02 
       3.750496024060e-01       2.048850742381e+02 
       3.888912817398e-01       1.931484451249e+02 
       4.035370110447e-01       1.819130615174e+02 
       4.191022661044e-01       1.711915449486e+02 
       4.357331839111e-01       1.609146962838e+02 
       4.536183019195e-01       1.510163165774e+02 
       4.730064015556e-01       1.414422783267e+02 
       4.942346042317e-01       1.321567367656e+02 
       5.177744678540e-01       1.230705942326e+02 
       5.443113568542e-01       1.141109134899e+02 
       5.748891078357e-01       1.051748401063e+02 
       6.111919408281e-01       9.611795209779e+01 
       6.561374425500e-01       8.675064637682e+01 
       7.152251227662e-01       7.678118638016e+01 
       7.997265463499e-01       6.579769047981e+01 
       9.327945269797e-01       5.351274494224e+01 
       1.145543818711e+00       4.094374862453e+01 
       1.439300560434e+00       3.056951475336e+01 
       1.811913420062e+00       2.272826654554e+01 
       2.281063609557e+00       1.674467882754e+01 
       2.871688943851e+00       1.214487558884e+01 
       3.615242186182e+00       8.626553199836e+00 
       4.551320257975e+00       5.978471740850e+00 
       5.729772729978e+00       4.033456508827e+00 
       7.213356493574e+00       2.646904151699e+00 
       9.081077794091e+00       1.690916900928e+00 
       1.143239960146e+01       1.054291837509e+00 
