# Matter power spectrum P(k) at redshift z=0.5
# for k=9.97417e-06 to 12.5699 h/Mpc,
# number of wavenumbers equal to 123
#    1:k (h/Mpc)              2:P (Mpc/h)^3        
       9.974169304674e-06       4.329605963173e+01 
       1.255673519919e-05       5.363863623101e+01 
       1.580799303143e-05       6.645175584413e+01 
       1.990108413674e-05       8.232552377702e+01 
       2.505398054199e-05       1.019908831093e+02 
       3.154109277091e-05       1.263532364826e+02 
       3.970788320505e-05       1.565338941397e+02 
       4.998926321540e-05       1.939214125484e+02 
       6.293275377873e-05       2.402347400519e+02 
       7.922764296623e-05       2.976008775831e+02 
       9.974169304674e-05       3.686499796238e+02 
       1.255673519919e-04       4.566307785418e+02 
       1.580799303143e-04       5.655492291682e+02 
       1.990108413674e-04       7.003318919882e+02 
       2.505398054199e-04       8.670127543588e+02 
       3.154109277091e-04       1.072936603313e+03 
       3.970788320505e-04       1.326962723566e+03 
       4.998926321540e-04       1.639640301577e+03 
       6.293275377873e-04       2.023315076200e+03 
       7.922764296623e-04       2.492118285667e+03 
       9.974169304674e-04       3.061759908717e+03 
       1.255673519919e-03       3.748926327871e+03 
       1.580799303143e-03       4.569924425739e+03 
       1.990108413674e-03       5.538356992270e+03 
       2.505398054199e-03       6.661741369236e+03 
       3.154109277091e-03       7.936838477200e+03 
       3.970788320505e-03       9.343825552026e+03 
       4.998926321540e-03       1.083944407318e+04 
       6.293275377873e-03       1.232244490700e+04 
       7.922764296623e-03       1.372855519147e+04 
       9.974169304674e-03       1.488830048666e+04 
       1.255673519919e-02       1.561864024915e+04 
       1.580799303141e-02       1.571805527635e+04 
       1.990108401467e-02       1.501799968789e+04 
       2.505388120140e-02       1.348539947925e+04 
       3.152657429794e-02       1.136329271144e+04 
       3.920059304230e-02       9.293007300264e+03 
       4.576860727821e-02       8.062633676084e+03 
       5.051541192429e-02       7.419960093633e+03 
       5.441402967776e-02       6.989932447085e+03 
       5.788750464376e-02       6.647474738766e+03 
       6.112309332842e-02       6.343122370815e+03 
       6.421935441421e-02       6.053065176772e+03 
       6.723514813428e-02       5.766153808744e+03 
       7.020902142362e-02       5.478355566724e+03 
       7.316807610262e-02       5.188982313210e+03 
       7.613249239280e-02       4.900575522101e+03 
       7.911803566592e-02       4.617727511834e+03 
       8.213753857927e-02       4.345095852876e+03 
       8.520182404191e-02       4.087913896743e+03 
       8.832030476428e-02       3.850576265939e+03 
       9.150138650346e-02       3.636317406536e+03 
       9.475274718999e-02       3.446909797418e+03 
       9.808153476630e-02       3.282188720172e+03 
       1.014945101233e-01       3.140187421898e+03 
       1.049981519368e-01       3.017033699631e+03 
       1.085987344238e-01       2.907602444764e+03 
       1.123023854504e-01       2.805728969883e+03 
       1.161151301402e-01       2.705454982425e+03 
       1.200429236520e-01       2.601354427178e+03 
       1.240916758247e-01       2.489850098242e+03 
       1.282672697363e-01       2.369856991468e+03 
       1.325755757992e-01       2.243163681329e+03 
       1.370224627240e-01       2.113952919573e+03 
       1.416138064965e-01       1.987945220539e+03 
       1.463554983912e-01       1.870804114197e+03 
       1.512534529661e-01       1.766744539510e+03 
       1.563136169344e-01       1.677634209595e+03 
       1.615419797785e-01       1.602298797739e+03 
       1.669445869540e-01       1.537089955265e+03 
       1.725275565140e-01       1.476596927764e+03 
       1.782970999825e-01       1.415706529741e+03 
       1.842595482937e-01       1.350938605012e+03 
       1.904213836225e-01       1.281869964522e+03 
       1.967892779408e-01       1.211014176698e+03 
       2.033701391659e-01       1.142607376502e+03 
       2.101711658213e-01       1.080774107845e+03 
       2.171999112239e-01       1.027178327658e+03 
       2.244643583502e-01       9.804770338022e+02 
       2.319730067408e-01       9.377106826796e+02 
       2.397349730932e-01       8.960923893960e+02 
       2.477601075895e-01       8.537410415167e+02 
       2.560591285461e-01       8.107571474758e+02 
       2.646437786852e-01       7.691854949150e+02 
       2.735270072821e-01       7.310861347352e+02 
       2.827231836905e-01       6.968990489675e+02 
       2.922483494164e-01       6.656975082877e+02 
       3.021205181196e-01       6.356513664301e+02 
       3.123600358925e-01       6.058833001731e+02 
       3.229900181938e-01       5.769830284540e+02 
       3.340368853340e-01       5.497266255370e+02 
       3.455310260849e-01       5.246026891735e+02 
       3.575076298063e-01       5.009498080652e+02 
       3.700077429836e-01       4.781126920221e+02 
       3.830796286514e-01       4.559491791019e+02 
       3.967805406946e-01       4.349096458656e+02 
       4.111790757728e-01       4.149685207433e+02 
       4.263583441820e-01       3.958490805520e+02 
       4.424203255986e-01       3.773640566716e+02 
       4.594919787436e-01       3.595412512346e+02 
       4.777340150834e-01       3.423575347144e+02 
       4.973538391612e-01       3.256598520647e+02 
       5.186252272867e-01       3.093160102857e+02 
       5.419193306689e-01       2.932834034928e+02 
       5.677555751370e-01       2.773897908946e+02 
       5.968893695621e-01       2.614746963495e+02 
       6.304721161862e-01       2.453161927412e+02 
       6.703633574894e-01       2.285938211666e+02 
       7.197881355068e-01       2.108410500366e+02 
       7.848335206136e-01       1.913073889525e+02 
       8.779877800671e-01       1.688161829324e+02 
       1.024859038285e+00       1.420606618963e+02 
       1.259396819754e+00       1.123652449849e+02 
       1.582501760755e+00       8.554774355330e+01 
       1.992191729475e+00       6.368067954177e+01 
       2.508020555382e+00       4.619522125225e+01 
       3.157410810337e+00       3.253433279509e+01 
       3.974944704607e+00       2.220701739654e+01 
       5.004158899107e+00       1.470466220590e+01 
       6.299862802742e+00       9.476080748337e+00 
       7.931057373188e+00       5.967912917124e+00 
       9.984609669504e+00       3.688678077433e+00 
       1.256987883978e+01       2.246232784982e+00 
