# Matter power spectrum P(k) at redshift z=2.5
# for k=1.0608e-05 to 10.6219 h/Mpc,
# number of wavenumbers equal to 122
#    1:k (h/Mpc)              2:P (Mpc/h)^3        
       1.060795538946e-05       5.132193700327e+00 
       1.335462460697e-05       6.427946880051e+00 
       1.681247628269e-05       8.050838072176e+00 
       2.116565362747e-05       1.008345096625e+01 
       2.664597920885e-05       1.262921030045e+01 
       3.354530034816e-05       1.581763129015e+01 
       4.223103105457e-05       1.981088674865e+01 
       5.316571816086e-05       2.481201179189e+01 
       6.693167362900e-05       3.107513844286e+01 
       8.426198478546e-05       3.891823345048e+01 
       1.060795538946e-04       4.873889601118e+01 
       1.335462460697e-04       6.103382792051e+01 
       1.681247628269e-04       7.642260976595e+01 
       2.116565362747e-04       9.567628025512e+01 
       2.664597920885e-04       1.197508258038e+02 
       3.354530034816e-04       1.498247475056e+02 
       4.223103105457e-04       1.873380335181e+02 
       5.316571816086e-04       2.340266865070e+02 
       6.693167362900e-04       2.919424326064e+02 
       8.426198478546e-04       3.634427466811e+02 
       1.060795538946e-03       4.511356776363e+02 
       1.335462460697e-03       5.577682673092e+02 
       1.681247628269e-03       6.860366897768e+02 
       2.116565362747e-03       8.382317556737e+02 
       2.664597920885e-03       1.015611118111e+03 
       3.354530034816e-03       1.217597845191e+03 
       4.223103105457e-03       1.440858232124e+03 
       5.316571816086e-03       1.678260130648e+03 
       6.693167362900e-03       1.917971564377e+03 
       8.426198478546e-03       2.142995884219e+03 
       1.060795538946e-02       2.331069348289e+03 
       1.335462460697e-02       2.456123841775e+03 
       1.681247628269e-02       2.490924586126e+03 
       2.116565360716e-02       2.413085630360e+03 
       2.664595282773e-02       2.216278781558e+03 
       3.353965409612e-02       1.925148835553e+03 
       4.195617274430e-02       1.608309043122e+03 
       4.992310279948e-02       1.380290663263e+03 
       5.562430117389e-02       1.253085205526e+03 
       6.017538614906e-02       1.165683847897e+03 
       6.416962278355e-02       1.095414784731e+03 
       6.785848712300e-02       1.033855990360e+03 
       7.136950103391e-02       9.772934078291e+02 
       7.477682795856e-02       9.239946297554e+02 
       7.812808572602e-02       8.732145876970e+02 
       8.145623707637e-02       8.247518648280e+02 
       8.478551488851e-02       7.786924246537e+02 
       8.813464724589e-02       7.352614005165e+02 
       9.151873742073e-02       6.947061552194e+02 
       9.495042127065e-02       6.572259089167e+02 
       9.844061205950e-02       6.229034769997e+02 
       1.019989975472e-01       5.916824123881e+02 
       1.056343818826e-01       5.633356788798e+02 
       1.093549266614e-01       5.374846683928e+02 
       1.131683243588e-01       5.136242247672e+02 
       1.170819251204e-01       4.911780898296e+02 
       1.211028305823e-01       4.695618914386e+02 
       1.252379638799e-01       4.482629882793e+02 
       1.294941221484e-01       4.269274492033e+02 
       1.338780159769e-01       4.054041382310e+02 
       1.383962990708e-01       3.837635775885e+02 
       1.430555905737e-01       3.622922117537e+02 
       1.478624919678e-01       3.414011463699e+02 
       1.528236001191e-01       3.215407494953e+02 
       1.579455177945e-01       3.030757477962e+02 
       1.632348628310e-01       2.861931655849e+02 
       1.686982770343e-01       2.708585969978e+02 
       1.743424358264e-01       2.568125650391e+02 
       1.801740596215e-01       2.436727505339e+02 
       1.861999278851e-01       2.310358597260e+02 
       1.924268968177e-01       2.185889591283e+02 
       1.988619215909e-01       2.062331201576e+02 
       2.055120840593e-01       1.940687686159e+02 
       2.123846268724e-01       1.822842770484e+02 
       2.194869949192e-01       1.711936713799e+02 
       2.268268850713e-01       1.609895996160e+02 
       2.344123052389e-01       1.515977056724e+02 
       2.422516438515e-01       1.428524556951e+02 
       2.503537510143e-01       1.345483672226e+02 
       2.587280328072e-01       1.265052175411e+02 
       2.673845604899e-01       1.187331707767e+02 
       2.763341967981e-01       1.113625885105e+02 
       2.855887420725e-01       1.044236485300e+02 
       2.951611037221e-01       9.790250380289e+01 
       3.050654935141e-01       9.182064088094e+01 
       3.153176585072e-01       8.609573604114e+01 
       3.259351531884e-01       8.063236913302e+01 
       3.369376626940e-01       7.545490382168e+01 
       3.483473901078e-01       7.055572092520e+01 
       3.601895250275e-01       6.594121829883e+01 
       3.724928163440e-01       6.160936019041e+01 
       3.852902801375e-01       5.750456881103e+01 
       3.986200847838e-01       5.363404600667e+01 
       4.125266713270e-01       4.995531628471e+01 
       4.270621903350e-01       4.648958297742e+01 
       4.422883706714e-01       4.321244553578e+01 
       4.582789871744e-01       4.011239722271e+01 
       4.751231736077e-01       3.716329458332e+01 
       4.929299524039e-01       3.437739217396e+01 
       5.118345552924e-01       3.172631106151e+01 
       5.320074465619e-01       2.920213687762e+01 
       5.536675423030e-01       2.679884821877e+01 
       5.771021584958e-01       2.449915255592e+01 
       6.026981582368e-01       2.229125475446e+01 
       6.309925552461e-01       2.016181515429e+01 
       6.627586438074e-01       1.809559113806e+01 
       6.991608615918e-01       1.607386883521e+01 
       7.420518045910e-01       1.407516195494e+01 
       7.945859477528e-01       1.207112523193e+01 
       8.625924047014e-01       1.002517939941e+01 
       9.578215280613e-01       7.893436994423e+00 
       1.104824674046e+00       5.675473926842e+00 
       1.342751869424e+00       3.593230280497e+00 
       1.683611028467e+00       2.096306987914e+00 
       2.119343194404e+00       1.201018436855e+00 
       2.668093819021e+00       6.824972054764e-01 
       3.358931108707e+00       3.850623115204e-01 
       4.228643729217e+00       2.158379978761e-01 
       5.323547048136e+00       1.202665431395e-01 
       6.701948659780e+00       6.665009438408e-02 
       8.437253476337e+00       3.675288475111e-02 
       1.062187280711e+01       2.017423631400e-02 
