# Matter power spectrum P(k) at redshift z=1.5
# for k=8.32437e-06 to 10.4923 h/Mpc,
# number of wavenumbers equal to 123
#    1:k (h/Mpc)              2:P (Mpc/h)^3        
       8.324371040533e-06       2.747520681372e+01 
       1.047976224013e-05       3.445955582558e+01 
       1.319323899366e-05       4.321926792871e+01 
       1.660930383299e-05       5.420556694016e+01 
       2.090987466757e-05       6.798425797351e+01 
       2.632397257643e-05       8.526472149535e+01 
       3.313991801584e-05       1.069363356782e+02 
       4.172068493492e-05       1.341136579562e+02 
       5.252323046202e-05       1.681929162836e+02 
       6.612282953816e-05       2.109219517225e+02 
       8.324371040533e-05       2.644863575357e+02 
       1.047976224013e-04       3.316143305010e+02 
       1.319323899366e-04       4.157020341540e+02 
       1.660930383299e-04       5.209588990071e+02 
       2.090987466757e-04       6.525672473873e+02 
       2.632397257643e-04       8.168407307338e+02 
       3.313991801584e-04       1.021349213358e+03 
       4.172068493492e-04       1.274954104653e+03 
       5.252323046202e-04       1.587675691415e+03 
       6.612282953816e-04       1.970315190083e+03 
       8.324371040533e-04       2.433791866153e+03 
       1.047976224013e-03       2.988132220260e+03 
       1.319323899366e-03       3.640732835366e+03 
       1.660930383299e-03       4.393340386610e+03 
       2.090987466757e-03       5.238289087823e+03 
       2.632397257643e-03       6.154721987319e+03 
       3.313991801584e-03       7.105246994743e+03 
       4.172068493492e-03       8.033383299664e+03 
       5.252323046202e-03       8.864013308193e+03 
       6.612282953816e-03       9.506399926724e+03 
       8.324371040533e-03       9.860669709680e+03 
       1.047976224013e-02       9.827217333630e+03 
       1.319323899366e-02       9.320343741406e+03 
       1.660930383261e-02       8.296596890034e+03 
       2.090987341528e-02       6.808305378226e+03 
       2.632340656198e-02       5.074623746513e+03 
       3.308869357900e-02       3.498464283041e+03 
       4.057581794350e-02       2.528735851008e+03 
       4.629356151134e-02       2.164940438584e+03 
       5.058991207153e-02       2.008314807587e+03 
       5.423326110822e-02       1.910116284659e+03 
       5.753505626227e-02       1.826359155736e+03 
       6.064165809670e-02       1.740342420610e+03 
       6.363366601878e-02       1.645576370665e+03 
       6.656080524492e-02       1.540728764476e+03 
       6.945645170390e-02       1.427534686586e+03 
       7.234453641360e-02       1.309591900547e+03 
       7.524317069925e-02       1.191404692039e+03 
       7.816670073251e-02       1.077692478224e+03 
       8.112694415648e-02       9.726518171611e+02 
       8.413397138041e-02       8.796282424344e+02 
       8.719661916379e-02       8.007873781850e+02 
       9.032283945060e-02       7.369996670040e+02 
       9.351994279721e-02       6.879036948126e+02 
       9.679477205236e-02       6.520521014567e+02 
       1.001538285009e-01       6.270084282712e+02 
       1.036033647535e-01       6.095437418718e+02 
       1.071494538359e-01       5.958490840230e+02 
       1.107980409066e-01       5.819541867758e+02 
       1.145549820991e-01       5.643117142164e+02 
       1.184260737213e-01       5.402661391892e+02 
       1.224170742127e-01       5.089245924869e+02 
       1.265337207083e-01       4.712971033761e+02 
       1.307817416855e-01       4.300450268131e+02 
       1.351668669294e-01       3.888192219638e+02 
       1.396948358899e-01       3.512853503904e+02 
       1.443714053999e-01       3.201291600841e+02 
       1.492023576597e-01       2.965461983025e+02 
       1.541935093505e-01       2.801172156045e+02 
       1.593507227157e-01       2.689764307221e+02 
       1.646799194307e-01       2.602620326041e+02 
       1.701870980716e-01       2.509610131313e+02 
       1.758783559865e-01       2.387984568907e+02 
       1.817599163693e-01       2.229333173253e+02 
       1.878381613438e-01       2.047538821266e+02 
       1.941196718775e-01       1.865163613421e+02 
       2.006112753887e-01       1.705106769223e+02 
       2.073201019664e-01       1.579862443434e+02 
       2.142536502321e-01       1.486041076644e+02 
       2.214198640252e-01       1.409772132037e+02 
       2.288272213194e-01       1.336548673620e+02 
       2.364848370920e-01       1.255914294967e+02 
       2.444025822966e-01       1.164845502004e+02 
       2.525912216660e-01       1.071687126341e+02 
       2.610625738368e-01       9.885127560496e+01 
       2.698296983019e-01       9.195910607094e+01 
       2.789071150348e-01       8.620344194638e+01 
       2.883110644080e-01       8.085706594515e+01 
       2.980598173980e-01       7.530204694160e+01 
       3.081740492610e-01       6.969759388260e+01 
       3.186772942073e-01       6.441253579831e+01 
       3.295965045807e-01       5.975087647647e+01 
       3.409627464007e-01       5.563070363919e+01 
       3.528120749524e-01       5.165941076247e+01 
       3.651866511481e-01       4.776347038261e+01 
       3.781361843453e-01       4.408636765651e+01 
       3.917198245896e-01       4.074463638780e+01 
       4.060086840928e-01       3.760306238588e+01 
       4.210892564223e-01       3.461646164638e+01 
       4.370681436933e-01       3.179671925646e+01 
       4.540787353172e-01       2.912999451800e+01 
       4.722908776856e-01       2.662940301853e+01 
       4.919252698469e-01       2.424478991755e+01 
       5.132755923232e-01       2.198084333179e+01 
       5.367438092591e-01       1.981945289029e+01 
       5.628989817285e-01       1.774254123437e+01 
       5.925803776708e-01       1.573543463008e+01 
       6.270894471769e-01       1.377981600549e+01 
       6.685732768348e-01       1.184816213193e+01 
       7.208531178995e-01       9.912424038924e+00 
       7.913499120212e-01       7.936410175714e+00 
       8.955531526139e-01       5.898062415871e+00 
       1.063355499588e+00       3.890162873229e+00 
       1.321684854594e+00       2.283264422174e+00 
       1.662920375864e+00       1.291973096220e+00 
       2.093480694767e+00       7.254112949567e-01 
       2.635536019090e+00       4.049716229173e-01 
       3.317943268123e+00       2.248834193561e-01 
       4.177043095132e+00       1.242689136923e-01 
       5.258585698621e+00       6.835850157942e-02 
       6.620167166091e+00       3.744355973027e-02 
       8.334296675717e+00       2.042864730061e-02 
       1.049225787449e+01       1.110389796971e-02 
