# Matter power spectrum P(k) at redshift z=2.5
# for k=1.06131e-05 to 10.6251 h/Mpc,
# number of wavenumbers equal to 122
#    1:k (h/Mpc)              2:P (Mpc/h)^3        
       1.061305119744e-05       4.814801277725e+00 
       1.336103984913e-05       6.019603421683e+00 
       1.682055259407e-05       7.525876910752e+00 
       2.117582110109e-05       9.409052287857e+00 
       2.665877929977e-05       1.176342963665e+01 
       3.356141470789e-05       1.470689193219e+01 
       4.225131783153e-05       1.838679560320e+01 
       5.319125769990e-05       2.298732090109e+01 
       6.696382600370e-05       2.873863757903e+01 
       8.430246222702e-05       3.592831713252e+01 
       1.061305119744e-04       4.491550764927e+01 
       1.336103984913e-04       5.614847047931e+01 
       1.682055259407e-04       7.018614648602e+01 
       2.117582110109e-04       8.772441413792e+01 
       2.665877929977e-04       1.096275617355e+02 
       3.356141470789e-04       1.369650552846e+02 
       4.225131783153e-04       1.710527191886e+02 
       5.319125769990e-04       2.134956727941e+02 
       6.696382600370e-04       2.662276416181e+02 
       8.430246222702e-04       3.315381040713e+02 
       1.061305119744e-03       4.120766978922e+02 
       1.336103984913e-03       5.108234502045e+02 
       1.682055259407e-03       6.310022494160e+02 
       2.117582110109e-03       7.758576547685e+02 
       2.665877929977e-03       9.482657447431e+02 
       3.356141470789e-03       1.150072877847e+03 
       4.225131783153e-03       1.381226682980e+03 
       5.319125769990e-03       1.637488296036e+03 
       6.696382600370e-03       1.912695299652e+03 
       8.430246222702e-03       2.192025602949e+03 
       1.061305119744e-02       2.453221122424e+03 
       1.336103984913e-02       2.665265212964e+03 
       1.682055259381e-02       2.789558408705e+03 
       2.117582017997e-02       2.787239044929e+03 
       2.665832671831e-02       2.637087245075e+03 
       3.351756565768e-02       2.364081369067e+03 
       4.120426372716e-02       2.076057423580e+03 
       4.715609265279e-02       1.899933191988e+03 
       5.159924453209e-02       1.792744516101e+03 
       5.535099794888e-02       1.712999213268e+03 
       5.874322083752e-02       1.645480600239e+03 
       6.193052983748e-02       1.583430182584e+03 
       6.499753469034e-02       1.523436674423e+03 
       6.799619698607e-02       1.463745664713e+03 
       7.096127244495e-02       1.403615042056e+03 
       7.391761188921e-02       1.342962679431e+03 
       7.688397906790e-02       1.282181036713e+03 
       7.987520748383e-02       1.221974880677e+03 
       8.290349529832e-02       1.163228827637e+03 
       8.597922176362e-02       1.106881939484e+03 
       8.911148299632e-02       1.053803128340e+03 
       9.230845537356e-02       1.004690317597e+03 
       9.557764883001e-02       9.599628534981e+02 
       9.892608740931e-02       9.197198342473e+02 
       1.023604403012e-01       8.836832792068e+02 
       1.058871182804e-01       8.512246393280e+02 
       1.095123454080e-01       8.214164888523e+02 
       1.132422126923e-01       7.931325120233e+02 
       1.170827183867e-01       7.651985183297e+02 
       1.210397982829e-01       7.365727612809e+02 
       1.251193484897e-01       7.065401558910e+02 
       1.293272426120e-01       6.748698477485e+02 
       1.336693448550e-01       6.418879907558e+02 
       1.381515203288e-01       6.084262198927e+02 
       1.427796436575e-01       5.756294463647e+02 
       1.475596068899e-01       5.446820171993e+02 
       1.524973276394e-01       5.165184241910e+02 
       1.575987583404e-01       4.915472267485e+02 
       1.628698974779e-01       4.695887578178e+02 
       1.683168036327e-01       4.498715340398e+02 
       1.739456131727e-01       4.312505246838e+02 
       1.797625624113e-01       4.126068009485e+02 
       1.857740150546e-01       3.932113276285e+02 
       1.919864957594e-01       3.729651720507e+02 
       1.984067306457e-01       3.524135157495e+02 
       2.050416956392e-01       3.325504170185e+02 
       2.118986735855e-01       3.143228749025e+02 
       2.189853211823e-01       2.981204453853e+02 
       2.263097469283e-01       2.836202842378e+02 
       2.338806015203e-01       2.701316077858e+02 
       2.417071824409e-01       2.569746983188e+02 
       2.497995549160e-01       2.436952563339e+02 
       2.581686920005e-01       2.303581361246e+02 
       2.668266373259e-01       2.174992735036e+02 
       2.757866950666e-01       2.056008106542e+02 
       2.850636530332e-01       1.947880844531e+02 
       2.946740465984e-01       1.847983235050e+02 
       3.046364735548e-01       1.751458061266e+02 
       3.149719732219e-01       1.656311651230e+02 
       3.257044875067e-01       1.564090780806e+02 
       3.368614276429e-01       1.477140433499e+02 
       3.484743787523e-01       1.396572467219e+02 
       3.605799862762e-01       1.320470931132e+02 
       3.732210854635e-01       1.247042574935e+02 
       3.864481601922e-01       1.175987007202e+02 
       4.003212548347e-01       1.108657568546e+02 
       4.149125198986e-01       1.044936629348e+02 
       4.303096610153e-01       9.839746327643e+01 
       4.466207027694e-01       9.252627956289e+01 
       4.639807119759e-01       8.688962296433e+01 
       4.825615199740e-01       8.148820464605e+01 
       5.025861764616e-01       7.627265647385e+01 
       5.243511319996e-01       7.120715428052e+01 
       5.482615596450e-01       6.628429933117e+01 
       5.748900717310e-01       6.145490897675e+01 
       6.050793946426e-01       5.668098746301e+01 
       6.401329524151e-01       5.190611059160e+01 
       6.821942035771e-01       4.705667756859e+01 
       7.350631958691e-01       4.202179140921e+01 
       8.060891000321e-01       3.664476730135e+01 
       9.105825165177e-01       3.073494638454e+01 
       1.078451394689e+00       2.430382685737e+01 
       1.338577505862e+00       1.826074921312e+01 
       1.683978615056e+00       1.364516509620e+01 
       2.119987786877e+00       1.024507978094e+01 
       2.668906459641e+00       7.674860180425e+00 
       3.359954163732e+00       5.692840322466e+00 
       4.229931679186e+00       4.153224911296e+00 
       5.325168481081e+00       2.964210270072e+00 
       6.703989922918e+00       2.061574823047e+00 
       8.439823274373e+00       1.393712434023e+00 
       1.062510799116e+01       9.150429333801e-01 
