# Matter power spectrum P(k) at redshift z=1.5
# for k=1.18246e-05 to 11.8368 h/Mpc,
# number of wavenumbers equal to 122
#    1:k (h/Mpc)              2:P (Mpc/h)^3        
       1.182456065380e-05       9.728086133138e+00 
       1.488623989037e-05       1.205693324888e+01 
       1.874066568405e-05       1.494328140230e+01 
       2.359310026358e-05       1.852057936661e+01 
       2.970195346483e-05       2.295421160849e+01 
       3.739254399681e-05       2.844912094635e+01 
       4.707442384921e-05       3.525926507956e+01 
       5.926318842934e-05       4.369928769882e+01 
       7.460793389765e-05       5.415895827253e+01 
       9.392582390521e-05       6.712094125543e+01 
       1.182456065380e-04       8.318265649818e+01 
       1.488623989037e-04       1.030829890824e+02 
       1.874066568405e-04       1.277346774009e+02 
       2.359310026358e-04       1.582630747969e+02 
       2.970195346483e-04       1.960515705677e+02 
       3.739254399681e-04       2.427930094537e+02 
       4.707442384921e-04       3.005446325657e+02 
       5.926318842934e-04       3.717811014801e+02 
       7.460793389765e-04       4.594362954273e+02 
       9.392582390521e-04       5.669212023637e+02 
       1.182456065380e-03       6.981037908650e+02 
       1.488623989037e-03       8.572302820235e+02 
       1.874066568405e-03       1.048730214112e+03 
       2.359310026358e-03       1.276772428554e+03 
       2.970195346483e-03       1.544590594059e+03 
       3.739254399681e-03       1.853456783611e+03 
       4.707442384921e-03       2.201322912703e+03 
       5.926318842934e-03       2.581074156997e+03 
       7.460793389765e-03       2.974798739943e+03 
       9.392582390521e-03       3.365002803641e+03 
       1.182456065380e-02       3.714397887242e+03 
       1.488623989037e-02       3.976997537268e+03 
       1.874066568402e-02       4.097483288473e+03 
       2.359310009127e-02       4.022575603768e+03 
       2.970181933517e-02       3.725848981218e+03 
       3.737363895737e-02       3.248013771639e+03 
       4.643494848799e-02       2.741616287850e+03 
       5.411648241835e-02       2.424401811294e+03 
       5.968001141260e-02       2.251700740551e+03 
       6.426117577006e-02       2.133617762500e+03 
       6.834831098531e-02       2.038751866180e+03 
       7.215852652734e-02       1.954140932305e+03 
       7.580649222540e-02       1.873536261468e+03 
       7.936086068605e-02       1.793666149992e+03 
       8.286667586572e-02       1.713113194023e+03 
       8.635565443889e-02       1.631583494827e+03 
       8.985144172034e-02       1.549618445165e+03 
       9.337252924348e-02       1.468204156661e+03 
       9.693398212827e-02       1.388692161262e+03 
       1.005485159334e-01       1.312551032746e+03 
       1.042271967942e-01       1.241137226330e+03 
       1.079799126692e-01       1.175578628849e+03 
       1.118156997373e-01       1.116596032707e+03 
       1.157429738546e-01       1.064430697732e+03 
       1.197696978479e-01       1.018813553520e+03 
       1.239035042525e-01       9.788826334169e+02 
       1.281517863653e-01       9.433641013801e+02 
       1.325217662994e-01       9.106139767977e+02 
       1.370205460600e-01       8.788567164596e+02 
       1.416551459361e-01       8.464212894116e+02 
       1.464325333651e-01       8.120564365559e+02 
       1.513596446740e-01       7.751628068724e+02 
       1.564434015949e-01       7.359364115188e+02 
       1.616907241232e-01       6.953907668164e+02 
       1.671085410626e-01       6.551303753835e+02 
       1.727037994613e-01       6.168924055779e+02 
       1.784834740504e-01       5.821962704347e+02 
       1.844545777420e-01       5.519049568023e+02 
       1.906241742044e-01       5.260178201652e+02 
       1.969993935139e-01       5.036674937366e+02 
       2.035874518645e-01       4.833311828946e+02 
       2.103956763075e-01       4.633259274824e+02 
       2.174315354901e-01       4.423487413411e+02 
       2.247026773608e-01       4.199086786932e+02 
       2.322169748307e-01       3.964700457590e+02 
       2.399825804094e-01       3.733340747155e+02 
       2.480079909071e-01       3.519700118965e+02 
       2.563021233966e-01       3.331954942540e+02 
       2.648744038030e-01       3.168942500323e+02 
       2.737348697293e-01       3.022556071252e+02 
       2.828942894719e-01       2.882625498676e+02 
       2.923642996542e-01       2.740581940187e+02 
       3.021575645427e-01       2.594642221687e+02 
       3.122879609640e-01       2.450850121125e+02 
       3.227707938629e-01       2.316954793619e+02 
       3.336230490355e-01       2.196901420191e+02 
       3.448636915395e-01       2.088900127620e+02 
       3.565140209159e-01       1.986294868378e+02 
       3.685980978763e-01       1.884601527507e+02 
       3.811432618987e-01       1.784450657159e+02 
       3.941807657288e-01       1.689117616350e+02 
       4.077465619079e-01       1.601456316590e+02 
       4.218822893131e-01       1.519946406505e+02 
       4.366365261270e-01       1.441736971158e+02 
       4.520664025286e-01       1.365415790953e+02 
       4.682397062876e-01       1.292638104686e+02 
       4.852376748932e-01       1.224074466023e+02 
       5.031587614696e-01       1.158895356502e+02 
       5.221238103282e-01       1.096000643776e+02 
       5.422833203211e-01       1.035388114541e+02 
       5.638278814043e-01       9.773353954355e+01 
       5.870035778350e-01       9.213757802163e+01 
       6.121354302608e-01       8.668501027340e+01 
       6.396643610146e-01       8.137862849040e+01 
       6.702079458213e-01       7.616805288075e+01 
       7.046652278647e-01       7.100204055664e+01 
       7.444082127844e-01       6.582285040883e+01 
       7.916560688876e-01       6.054286548139e+01 
       8.502646434062e-01       5.503895873382e+01 
       9.275268161347e-01       4.912248726294e+01 
       1.038427902044e+00       4.252302133518e+01 
       1.213608085751e+00       3.502162475475e+01 
       1.492797592987e+00       2.720691053030e+01 
       1.876052958387e+00       2.059469164503e+01 
       2.361747422546e+00       1.543617317683e+01 
       2.973263605284e+00       1.139418238493e+01 
       3.743117108525e+00       8.233642589881e+00 
       4.712305247244e+00       5.798922257780e+00 
       5.932440823886e+00       3.969041651755e+00 
       7.468500507155e+00       2.636719754983e+00 
       9.402285076455e+00       1.701691523430e+00 
       1.183677561168e+01       1.070196792903e+00 
