# Matter power spectrum P(k) at redshift z=0.5
# for k=1.02093e-05 to 10.2234 h/Mpc,
# number of wavenumbers equal to 122
#    1:k (h/Mpc)              2:P (Mpc/h)^3        
       1.020932608477e-05       4.645526516304e+01 
       1.285278004541e-05       5.761614278073e+01 
       1.618069141137e-05       7.145842183244e+01 
       2.037028359817e-05       8.862622123025e+01 
       2.564466766719e-05       1.099184069881e+02 
       3.228472380324e-05       1.363256143555e+02 
       4.064405920865e-05       1.690763335520e+02 
       5.116783897624e-05       2.096937338201e+02 
       6.441649275378e-05       2.600661286652e+02 
       8.109555966639e-05       3.225338653746e+02 
       1.020932608477e-04       3.999964147227e+02 
       1.285278004541e-04       4.960436407663e+02 
       1.618069141137e-04       6.151158397821e+02 
       2.037028359817e-04       7.626967768211e+02 
       2.564466766719e-04       9.455429774877e+02 
       3.228472380324e-04       1.171949625610e+03 
       4.064405920866e-04       1.452047996998e+03 
       5.116783897624e-04       1.798121165363e+03 
       6.441649275378e-04       2.224914845644e+03 
       8.109555966639e-04       2.749908863444e+03 
       1.020932608477e-03       3.393485779569e+03 
       1.285278004541e-03       4.178840015847e+03 
       1.618069141137e-03       5.131140534255e+03 
       2.037028359817e-03       6.276486055926e+03 
       2.564466766719e-03       7.638900757357e+03 
       3.228472380324e-03       9.236049853842e+03 
       4.064405920866e-03       1.107281863506e+04 
       5.116783897624e-03       1.307107905789e+04 
       6.441649275378e-03       1.527195556686e+04 
       8.109555966639e-03       1.753256516537e+04 
       1.020932608477e-02       1.968202885357e+04 
       1.285278004541e-02       2.147555929175e+04 
       1.618069140978e-02       2.259909015854e+04 
       2.037027997882e-02       2.272804298171e+04 
       2.564343922001e-02       2.168322913256e+04 
       3.219683038482e-02       1.967881276365e+04 
       3.909102670032e-02       1.766885892648e+04 
       4.415802721356e-02       1.648140619141e+04 
       4.805513143586e-02       1.572666804380e+04 
       5.140649661330e-02       1.515400397589e+04 
       5.446685502064e-02       1.466480929994e+04 
       5.735950435687e-02       1.421281025991e+04 
       6.015380899292e-02       1.377059981284e+04 
       6.289323172113e-02       1.332527147013e+04 
       6.560729438660e-02       1.286970780525e+04 
       6.831736854385e-02       1.240092405969e+04 
       7.103975854801e-02       1.192258979757e+04 
       7.378746794800e-02       1.143964146528e+04 
       7.657127195244e-02       1.096043335117e+04 
       7.940039981529e-02       1.049303286271e+04 
       8.228298601963e-02       1.004729149456e+04 
       8.522637820683e-02       9.631008234737e+03 
       8.823735291329e-02       9.250588508614e+03 
       9.132226998953e-02       8.909419002158e+03 
       9.448718503982e-02       8.607635908469e+03 
       9.773793237787e-02       8.341441361144e+03 
       1.010801868069e-01       8.104177172153e+03 
       1.045195099007e-01       7.885496859976e+03 
       1.080613847724e-01       7.673486493367e+03 
       1.117112422126e-01       7.456432604355e+03 
       1.154744803483e-01       7.224219520812e+03 
       1.193564794902e-01       6.970886154770e+03 
       1.233626135089e-01       6.696575646682e+03 
       1.274982588703e-01       6.407452554148e+03 
       1.317688023160e-01       6.114956155680e+03 
       1.361796480891e-01       5.832546222493e+03 
       1.407362255435e-01       5.573289470717e+03 
       1.454439979446e-01       5.345697263165e+03 
       1.503084732428e-01       5.151720328092e+03 
       1.553352175890e-01       4.985587178947e+03 
       1.605298723507e-01       4.835217164605e+03 
       1.658981753825e-01       4.686762456745e+03 
       1.714459873009e-01       4.527675786785e+03 
       1.771793235226e-01       4.351437862721e+03 
       1.831043928412e-01       4.161476332652e+03 
       1.892276433577e-01       3.970363130599e+03 
       1.955558166427e-01       3.791959875571e+03 
       2.020960111150e-01       3.634956440053e+03 
       2.088557557748e-01       3.500064961811e+03 
       2.158430956555e-01       3.380684640848e+03 
       2.230666906652e-01       3.265074750267e+03 
       2.305359299165e-01       3.143569433458e+03 
       2.382610642055e-01       3.014415088921e+03 
       2.462533600555e-01       2.883877416393e+03 
       2.545252797350e-01       2.760964967503e+03 
       2.630906929776e-01       2.651789235892e+03 
       2.719651278744e-01       2.553816902026e+03 
       2.811660707486e-01       2.459572918580e+03 
       2.907133279669e-01       2.363636358098e+03 
       3.006294669333e-01       2.266106009052e+03 
       3.109403594311e-01       2.172278861357e+03 
       3.216758587691e-01       2.085613630140e+03 
       3.328706539525e-01       2.004822517102e+03 
       3.445653611043e-01       1.925750951410e+03 
       3.568079373409e-01       1.846895605972e+03 
       3.696555397430e-01       1.770349580261e+03 
       3.831770093418e-01       1.697754761348e+03 
       3.974562497443e-01       1.627823292572e+03 
       4.125969141264e-01       1.559076398107e+03 
       4.287290525143e-01       1.491575790576e+03 
       4.460187776921e-01       1.426117773488e+03 
       4.646827267939e-01       1.361869825324e+03 
       4.850104191053e-01       1.298042746168e+03 
       5.074001621505e-01       1.234803642144e+03 
       5.324193410296e-01       1.171307612503e+03 
       5.609110957942e-01       1.106821837239e+03 
       5.941951068335e-01       1.040347008255e+03 
       6.344736881077e-01       9.702438276473e+02 
       6.857208204487e-01       8.939672457618e+02 
       7.557658539584e-01       8.073233120957e+02 
       8.610223260191e-01       7.037903664081e+02 
       1.031516588260e+00       5.783911571128e+02 
       1.287441072124e+00       4.452207515313e+02 
       1.620295674882e+00       3.267901515491e+02 
       2.039826716156e+00       2.292542302345e+02 
       2.567989681038e+00       1.542803604687e+02 
       3.232907466683e+00       1.003812886977e+02 
       4.069989363786e+00       6.365338747948e+01 
       5.123813035802e+00       3.960560325003e+01 
       6.450498436053e+00       2.430813558618e+01 
       8.120696399886e+00       1.477443294496e+01 
       1.022335105928e+01       8.917924011940e+00 
