# Matter power spectrum P(k) at redshift z=0
# for k=8.63685e-06 to 10.8844 h/Mpc,
# number of wavenumbers equal to 123
#    1:k (h/Mpc)              2:P (Mpc/h)^3        
       8.636845693387e-06       6.139295119018e+01 
       1.087314452115e-05       7.707376140266e+01 
       1.368847794379e-05       9.675954002990e+01 
       1.723277273222e-05       1.214728926026e+02 
       2.169477550826e-05       1.524973994223e+02 
       2.731210419052e-05       1.914438661879e+02 
       3.438390201501e-05       2.403333762812e+02 
       4.328676800334e-05       3.017008710500e+02 
       5.449481223385e-05       3.787240977259e+02 
       6.860490393214e-05       4.753833020991e+02 
       8.636845693387e-05       5.966570811204e+02 
       1.087314452115e-04       7.487596550777e+02 
       1.368847794379e-04       9.394220374377e+02 
       1.723277273222e-04       1.178213010284e+03 
       2.169477550826e-04       1.476883287268e+03 
       2.731210419052e-04       1.849693457337e+03 
       3.438390201501e-04       2.313654055983e+03 
       4.328676800334e-04       2.888572325633e+03 
       5.449481223385e-04       3.596785767757e+03 
       6.860490393214e-04       4.462458907776e+03 
       8.636845693387e-04       5.510182180119e+03 
       1.087314452115e-03       6.762203061406e+03 
       1.368847794379e-03       8.233677688564e+03 
       1.723277273222e-03       9.926166767128e+03 
       2.169477550826e-03       1.181927742823e+04 
       2.731210419052e-03       1.386193769258e+04 
       3.438390201501e-03       1.596571492876e+04 
       4.328676800334e-03       1.799956477365e+04 
       5.449481223385e-03       1.979289882852e+04 
       6.860490393214e-03       2.113370894612e+04 
       8.636845693387e-03       2.182552358405e+04 
       1.087314452115e-02       2.165047463300e+04 
       1.368847794379e-02       2.043223420253e+04 
       1.723277273213e-02       1.808722705630e+04 
       2.169477509809e-02       1.473028490515e+04 
       2.731185405852e-02       1.083040037742e+04 
       3.435500064576e-02       7.257687989030e+03 
       4.247144673554e-02       4.992659660901e+03 
       4.901304855259e-02       4.160479408587e+03 
       5.382034004396e-02       3.855473337262e+03 
       5.783324454737e-02       3.688177054946e+03 
       6.143941351632e-02       3.550937935861e+03 
       6.481548533127e-02       3.404370946886e+03 
       6.805653709054e-02       3.232890982409e+03 
       7.122026845502e-02       3.033648140373e+03 
       7.434492618251e-02       2.810489634564e+03 
       7.745766058114e-02       2.571926254010e+03 
       8.057884914738e-02       2.329111674127e+03 
       8.372451910167e-02       2.093153952093e+03 
       8.690779231131e-02       1.874367192384e+03 
       9.013979147464e-02       1.680648240097e+03 
       9.343023219849e-02       1.517434063597e+03 
       9.678782313429e-02       1.386934206933e+03 
       1.002205440529e-01       1.288727662733e+03 
       1.037358435769e-01       1.219841904436e+03 
       1.073407824098e-01       1.175343419645e+03 
       1.110421385944e-01       1.148466822558e+03 
       1.148464856912e-01       1.131292666745e+03 
       1.187602512519e-01       1.114779636997e+03 
       1.227897607185e-01       1.090518845252e+03 
       1.269412704238e-01       1.052183324702e+03 
       1.312209924034e-01       9.966024839254e+02 
       1.356351130950e-01       9.253437426281e+02 
       1.401898075738e-01       8.437949989805e+02 
       1.448912506894e-01       7.602805880561e+02 
       1.497456262865e-01       6.832610943211e+02 
       1.547591355692e-01       6.192606789962e+02 
       1.599380055939e-01       5.715109730173e+02 
       1.652884988267e-01       5.397188736463e+02 
       1.708169246729e-01       5.202525331217e+02 
       1.765296538663e-01       5.072477597022e+02 
       1.824331365928e-01       4.938482309710e+02 
       1.885339252158e-01       4.744340967408e+02 
       1.948387024656e-01       4.462815245643e+02 
       2.013543159612e-01       4.117088949157e+02 
       2.080878199451e-01       3.756053544911e+02 
       2.150465251510e-01       3.433417837224e+02 
       2.222380577839e-01       3.182910442017e+02 
       2.296704286986e-01       3.003407452258e+02 
       2.373521140175e-01       2.867642769720e+02 
       2.452921486591e-01       2.742926529006e+02 
       2.535002345686e-01       2.602612584281e+02 
       2.619868658818e-01       2.434769220090e+02 
       2.707634738455e-01       2.254970803722e+02 
       2.798425951045e-01       2.091028688424e+02 
       2.892380680072e-01       1.956717073367e+02 
       2.989652629625e-01       1.848729833901e+02 
       3.090413547035e-01       1.751587781754e+02 
       3.194856467520e-01       1.649424147359e+02 
       3.303199616468e-01       1.543067531647e+02 
       3.415691149452e-01       1.440440212558e+02 
       3.532614971110e-01       1.349721298873e+02 
       3.654297959095e-01       1.271302427424e+02 
       3.781119039485e-01       1.196192692892e+02 
       3.913520732684e-01       1.121503768417e+02 
       4.052024041020e-01       1.049680916413e+02 
       4.197247924653e-01       9.844363137458e+01 
       4.349935182775e-01       9.231921500292e+01 
       4.510987443165e-01       8.647607690487e+01 
       4.681513374377e-01       8.090272163975e+01 
       4.862896544675e-01       7.558469964617e+01 
       5.056893250288e-01       7.058524715226e+01 
       5.265777445282e-01       6.577926591052e+01 
       5.492562271482e-01       6.116348726962e+01 
       5.741351153175e-01       5.672080919189e+01 
       6.017918237028e-01       5.240363796558e+01 
       6.330716817983e-01       4.817672385721e+01 
       6.692736925812e-01       4.399198076098e+01 
       7.125170080663e-01       3.979010494251e+01 
       7.665222913187e-01       3.547471248280e+01 
       8.384092850176e-01       3.092900662434e+01 
       9.429236426408e-01       2.599146792688e+01 
       1.109612028296e+00       2.063501387286e+01 
       1.371787968598e+00       1.551442330568e+01 
       1.725081550960e+00       1.156815973176e+01 
       2.171718934956e+00       8.689807859501e+00 
       2.734032063916e+00       6.540296326134e+00 
       3.441942441887e+00       4.900053859014e+00 
       4.333148806025e+00       3.632970182435e+00 
       5.455111144990e+00       2.652030974261e+00 
       6.867578044590e+00       1.898315998012e+00 
       8.645768517814e+00       1.328381099960e+00 
       1.088437769157e+01       9.070334296097e-01 
