# Matter power spectrum P(k) at redshift z=2
# for k=8.05533e-06 to 10.1551 h/Mpc,
# number of wavenumbers equal to 123
#    1:k (h/Mpc)              2:P (Mpc/h)^3        
       8.055330139216e-06       2.254068385770e+01 
       1.014105981265e-05       2.816539601450e+01 
       1.276683790067e-05       3.519361208408e+01 
       1.607249666141e-05       4.397549261023e+01 
       2.023407447803e-05       5.494848642460e+01 
       2.547319054452e-05       6.865905234493e+01 
       3.206884689598e-05       8.578972081877e+01 
       4.037228628428e-05       1.071927388069e+02 
       5.082569713551e-05       1.339318521089e+02 
       6.398576169605e-05       1.673339189660e+02 
       8.055330139216e-05       2.090523239569e+02 
       1.014105981265e-04       2.611439943877e+02 
       1.276683790067e-04       3.261613979645e+02 
       1.607249666141e-04       4.072592575628e+02 
       2.023407447803e-04       5.083122570868e+02 
       2.547319054452e-04       6.340330689154e+02 
       3.206884689598e-04       7.900679744495e+02 
       4.037228628428e-04       9.830294415649e+02 
       5.082569713551e-04       1.220405847863e+03 
       6.398576169605e-04       1.510283615320e+03 
       8.055330139216e-04       1.860845747569e+03 
       1.014105981265e-03       2.279631361316e+03 
       1.276683790067e-03       2.772364547409e+03 
       1.607249666141e-03       3.340854330071e+03 
       2.023407447803e-03       3.980097359044e+03 
       2.547319054452e-03       4.675504262385e+03 
       3.206884689598e-03       5.400212564077e+03 
       4.037228628428e-03       6.112865917140e+03 
       5.082569713551e-03       6.757365557617e+03 
       6.398576169605e-03       7.264846144937e+03 
       8.055330139216e-03       7.556901185498e+03 
       1.014105981265e-02       7.553610854327e+03 
       1.276683790067e-02       7.184203623749e+03 
       1.607249665965e-02       6.411334753377e+03 
       2.023407056172e-02       5.276837252113e+03 
       2.547189114978e-02       3.958505014708e+03 
       3.197760205344e-02       2.780207532047e+03 
       3.879065763291e-02       2.091302027202e+03 
       4.378619339626e-02       1.828712473003e+03 
       4.763552136493e-02       1.703134540996e+03 
       5.094932599065e-02       1.618952866328e+03 
       5.397715065110e-02       1.545849546030e+03 
       5.684006307939e-02       1.471675322642e+03 
       5.960628695190e-02       1.391529440694e+03 
       6.231862243918e-02       1.304322113789e+03 
       6.500616863231e-02       1.211249522129e+03 
       6.769000705750e-02       1.114904286678e+03 
       7.038623104407e-02       1.018649168331e+03 
       7.310768282818e-02       9.259975241371e+02 
       7.586500896067e-02       8.401849810018e+02 
       7.866733221509e-02       7.638196899530e+02 
       8.152269604870e-02       6.985812549252e+02 
       8.443836805921e-02       6.452182253637e+02 
       8.742105265484e-02       6.034972724952e+02 
       9.047704331709e-02       5.723166118207e+02 
       9.361233349247e-02       5.497577922722e+02 
       9.683269841822e-02       5.332628050703e+02 
       1.001437560671e-01       5.198211530303e+02 
       1.035510128052e-01       5.062857500509e+02 
       1.070598976934e-01       4.898152103407e+02 
       1.106757882733e-01       4.683840052907e+02 
       1.144040299635e-01       4.412782541468e+02 
       1.182499507081e-01       4.092895091273e+02 
       1.222188722052e-01       3.745459982329e+02 
       1.263161188304e-01       3.399488946367e+02 
       1.305470252318e-01       3.084008477016e+02 
       1.349169434841e-01       2.820619316899e+02 
       1.394312506357e-01       2.618892072907e+02 
       1.440953574442e-01       2.475235285812e+02 
       1.489147190768e-01       2.374485895265e+02 
       1.538948485351e-01       2.293267266804e+02 
       1.590413335581e-01       2.206869681882e+02 
       1.643598577459e-01       2.096996551094e+02 
       1.698562266513e-01       1.957996255405e+02 
       1.755363995872e-01       1.800668344357e+02 
       1.814065279207e-01       1.643654270554e+02 
       1.874730006596e-01       1.505985184167e+02 
       1.937424982038e-01       1.397525690971e+02 
       2.002220552365e-01       1.315053166604e+02 
       2.069191338871e-01       1.247240689803e+02 
       2.138417085168e-01       1.182069033523e+02 
       2.209983637908e-01       1.110332734979e+02 
       2.283984081176e-01       1.029864325715e+02 
       2.360520051015e-01       9.483458298362e+01 
       2.439703264015e-01       8.756176020240e+01 
       2.521657303785e-01       8.151291172127e+01 
       2.606519722215e-01       7.645038148397e+01 
       2.694444529796e-01       7.169993353432e+01 
       2.785605172476e-01       6.677190253125e+01 
       2.880198123833e-01       6.181620101973e+01 
       2.978447264003e-01       5.714659440204e+01 
       3.080609275697e-01       5.304667242926e+01 
       3.186980370079e-01       4.939299649794e+01 
       3.297904772401e-01       4.587185741195e+01 
       3.413785566455e-01       4.240977142495e+01 
       3.535098745633e-01       3.915762551252e+01 
       3.662411691107e-01       3.618506420901e+01 
       3.796407868214e-01       3.340173417446e+01 
       3.937920425873e-01       3.074560914829e+01 
       4.087978820224e-01       2.823266779258e+01 
       4.247874958715e-01       2.586607310308e+01 
       4.419259415161e-01       2.363810509630e+01 
       4.604285439632e-01       2.150821837929e+01 
       4.805831703724e-01       1.948791339385e+01 
       5.027860219105e-01       1.755646320912e+01 
       5.276017697594e-01       1.569720712471e+01 
       5.558700415390e-01       1.389884455280e+01 
       5.889060252461e-01       1.214133030306e+01 
       6.289066084349e-01       1.040014403419e+01 
       6.798404475926e-01       8.648767222070e+00 
       7.495353459742e-01       6.854310049533e+00 
       8.544044828405e-01       5.004357200066e+00 
       1.024319772376e+00       3.222705181694e+00 
       1.278823649725e+00       1.868667925480e+00 
       1.609476540019e+00       1.055006332915e+00 
       2.026206603932e+00       5.913686835590e-01 
       2.550842976427e+00       3.295223729300e-01 
       3.211321044520e+00       1.826070154272e-01 
       4.042813668376e+00       1.006791972565e-01 
       5.089600862267e+00       5.524794801264e-02 
       6.407427861397e+00       3.018453373370e-02 
       8.066473758951e+00       1.642379875007e-02 
       1.015508879871e+01       8.902734858110e-03 
