# Matter power spectrum P(k) at redshift z=1.5
# for k=9.78505e-06 to 12.3361 h/Mpc,
# number of wavenumbers equal to 123
#    1:k (h/Mpc)              2:P (Mpc/h)^3        
       9.785048993054e-06       1.682845210582e+01 
       1.231864683301e-05       2.088301459045e+01 
       1.550825753699e-05       2.591442630265e+01 
       1.952373950597e-05       3.215800220334e+01 
       2.457893179731e-05       3.990570599414e+01 
       3.094304183439e-05       4.951976601987e+01 
       3.895498168352e-05       6.144951233291e+01 
       4.904141635736e-05       7.625219274871e+01 
       6.173948528266e-05       9.461866935963e+01 
       7.772540693343e-05       1.174049587422e+02 
       9.785048993054e-05       1.456707977557e+02 
       1.231864683301e-04       1.807262923523e+02 
       1.550825753699e-04       2.241875446556e+02 
       1.952373950597e-04       2.780412853535e+02 
       2.457893179731e-04       3.447168227271e+02 
       3.094304183439e-04       4.271601117716e+02 
       3.895498168352e-04       5.288987374344e+02 
       4.904141635736e-04       6.540778225355e+02 
       6.173948528266e-04       8.074375306161e+02 
       7.772540693343e-04       9.941997434390e+02 
       9.785048993054e-04       1.219839943422e+03 
       1.231864683301e-03       1.489711703330e+03 
       1.550825753699e-03       1.808384134588e+03 
       1.952373950597e-03       2.178449997589e+03 
       2.457893179731e-03       2.598904148561e+03 
       3.094304183439e-03       3.063328299865e+03 
       3.895498168352e-03       3.557932501518e+03 
       4.904141635736e-03       4.059836735863e+03 
       6.173948528266e-03       4.536167021897e+03 
       7.772540693343e-03       4.942638622501e+03 
       9.785048993054e-03       5.232851562682e+03 
       1.231864683301e-02       5.352686317073e+03 
       1.550825753699e-02       5.253516187173e+03 
       1.952373950158e-02       4.904221441654e+03 
       2.457892363051e-02       4.314087125327e+03 
       3.094069563977e-02       3.561812135972e+03 
       3.880874731596e-02       2.811398231827e+03 
       4.680101350367e-02       2.293690613254e+03 
       5.258837441722e-02       2.034347250244e+03 
       5.710084658285e-02       1.872827103229e+03 
       6.101125078742e-02       1.748948117578e+03 
       6.459719300012e-02       1.642199971756e+03 
       6.799534918509e-02       1.544034165747e+03 
       7.128355206427e-02       1.450750509929e+03 
       7.451100685559e-02       1.360936617944e+03 
       7.771136673114e-02       1.274458125842e+03 
       8.090913022679e-02       1.191824622350e+03 
       8.412307483889e-02       1.113899711921e+03 
       8.736823663866e-02       1.041541192284e+03 
       9.065711826547e-02       9.754541289209e+02 
       9.400046070847e-02       9.160868763997e+02 
       9.740775532766e-02       8.635224377497e+02 
       1.008875942835e-01       8.174506356644e+02 
       1.044479166158e-01       7.770974104742e+02 
       1.080961847098e-01       7.414198307396e+02 
       1.118395129767e-01       7.091115142086e+02 
       1.156847628957e-01       6.787338855402e+02 
       1.196386138449e-01       6.489629144856e+02 
       1.237076161859e-01       6.187027740428e+02 
       1.278982311475e-01       5.873940017672e+02 
       1.322168608105e-01       5.548973852558e+02 
       1.366698706640e-01       5.217140422494e+02 
       1.412636066527e-01       4.887449610803e+02 
       1.460044082726e-01       4.571055974875e+02 
       1.508986190223e-01       4.278219103005e+02 
       1.559525953671e-01       4.016049228609e+02 
       1.611727152633e-01       3.786395772491e+02 
       1.665653872325e-01       3.585589274373e+02 
       1.721370609311e-01       3.405748453861e+02 
       1.778942401375e-01       3.237047095155e+02 
       1.838434990623e-01       3.070455608702e+02 
       1.899915028755e-01       2.900759549441e+02 
       1.963450333395e-01       2.728256830859e+02 
       2.029110204332e-01       2.556223813622e+02 
       2.096965808636e-01       2.392672579910e+02 
       2.167090643831e-01       2.243883968045e+02 
       2.239561088791e-01       2.110796076061e+02 
       2.314457052836e-01       1.991132241587e+02 
       2.391862734763e-01       1.879940204391e+02 
       2.471867505492e-01       1.772013537074e+02 
       2.554566930704e-01       1.665964056442e+02 
       2.640063953628e-01       1.563896924412e+02 
       2.728470263297e-01       1.467146634547e+02 
       2.819907880425e-01       1.376734965841e+02 
       2.914511002227e-01       1.293921231238e+02 
       3.012428159533e-01       1.217109528037e+02 
       3.113824755514e-01       1.143879928435e+02 
       3.218886076560e-01       1.074040571482e+02 
       3.327820894159e-01       1.007499569081e+02 
       3.440865814912e-01       9.449631615959e+01 
       3.558290588029e-01       8.867361528636e+01 
       3.680404651770e-01       8.317873475206e+01 
       3.807565301457e-01       7.800520708831e+01 
       3.940188005485e-01       7.306379474304e+01 
       4.078759603877e-01       6.841078447656e+01 
       4.223855430314e-01       6.402541304161e+01 
       4.376161858541e-01       5.988579371010e+01 
       4.536506479484e-01       5.593220117909e+01 
       4.705899222693e-01       5.220108773076e+01 
       4.885589519347e-01       4.865008561019e+01 
       5.077147560914e-01       4.526248485454e+01 
       5.282582769535e-01       4.203589465152e+01 
       5.504521581564e-01       3.894166175554e+01 
       5.746483261998e-01       3.596534024878e+01 
       6.013324657651e-01       3.308678847571e+01 
       6.311990543867e-01       3.028537131340e+01 
       6.652848792788e-01       2.753314836825e+01 
       7.052220054935e-01       2.479681049391e+01 
       7.537532918327e-01       2.203494757097e+01 
       8.158697519055e-01       1.918593050082e+01 
       9.014871569473e-01       1.616990298493e+01 
       1.031404997273e+00       1.291754819208e+01 
       1.242135716477e+00       9.590218321731e+00 
       1.553339012229e+00       6.824954631361e+00 
       1.955140526362e+00       4.894960085527e+00 
       2.461372893943e+00       3.554322813701e+00 
       3.098684879810e+00       2.595956356791e+00 
       3.901013138334e+00       1.892964210651e+00 
       4.911084571592e+00       1.367992923850e+00 
       6.182689166647e+00       9.732059744366e-01 
       7.783544505116e+00       6.778498037166e-01 
       9.798901971322e+00       4.605381323647e-01 
       1.233608669938e+01       3.047039250511e-01 
