# Matter power spectrum P(k) at redshift z=0.5
# for k=9.71536e-06 to 12.2475 h/Mpc,
# number of wavenumbers equal to 123
#    1:k (h/Mpc)              2:P (Mpc/h)^3        
       9.715359690731e-06       3.871383370773e+01 
       1.223091319938e-05       4.827422612196e+01 
       1.539780743615e-05       6.019546066824e+01 
       1.938469106728e-05       7.506048834124e+01 
       2.440388018438e-05       9.359606905275e+01 
       3.072266491050e-05       1.167082767336e+02 
       3.867754357387e-05       1.455265291880e+02 
       4.869214247092e-05       1.814584267926e+02 
       6.129977551134e-05       2.262577072111e+02 
       7.717184512850e-05       2.821082399259e+02 
       9.715359690731e-05       3.517274544565e+02 
       1.223091319938e-04       4.384925362001e+02 
       1.539780743615e-04       5.465925805340e+02 
       1.938469106728e-04       6.812082954827e+02 
       2.440388018438e-04       8.487173724556e+02 
       3.072266491050e-04       1.056916684737e+03 
       3.867754357387e-04       1.315240975358e+03 
       4.869214247092e-04       1.634942471459e+03 
       6.129977551134e-04       2.029181977212e+03 
       7.717184512850e-04       2.512974049847e+03 
       9.715359690731e-04       3.102898487899e+03 
       1.223091319938e-03       3.816347611551e+03 
       1.539780743615e-03       4.669878788980e+03 
       1.938469106728e-03       5.676439559918e+03 
       2.440388018438e-03       6.841510315806e+03 
       3.072266491050e-03       8.157665178887e+03 
       3.867754357387e-03       9.598486272940e+03 
       4.869214247092e-03       1.111124687628e+04 
       6.129977551134e-03       1.259405709201e+04 
       7.717184512850e-03       1.394925611071e+04 
       9.715359690731e-03       1.499910012188e+04 
       1.223091319938e-02       1.554096085501e+04 
       1.539780743615e-02       1.535344114072e+04 
       1.938469105426e-02       1.425442360748e+04 
       2.440386169153e-02       1.222164699781e+04 
       3.071840923785e-02       9.572759157090e+03 
       3.845725296551e-02       7.067483749539e+03 
       4.591774535047e-02       5.625754959735e+03 
       5.126302448823e-02       5.044893402940e+03 
       5.550579607389e-02       4.748618926468e+03 
       5.921816886020e-02       4.551842701276e+03 
       6.264087691865e-02       4.387221737747e+03 
       6.589511810889e-02       4.224152267716e+03 
       6.905101733032e-02       4.047403036649e+03 
       7.215342890852e-02       3.850663725758e+03 
       7.523331072136e-02       3.633833699557e+03 
       7.831336674238e-02       3.400541253627e+03 
       8.141110770548e-02       3.157611758881e+03 
       8.454063043472e-02       2.913532355818e+03 
       8.771371089233e-02       2.677289558636e+03 
       9.094050633871e-02       2.457208711397e+03 
       9.423002326320e-02       2.260371746737e+03 
       9.759043883086e-02       2.091537011992e+03 
       1.010293272994e-01       1.952932265727e+03 
       1.045538227868e-01       1.844687567452e+03 
       1.081707381909e-01       1.763763426888e+03 
       1.118866531466e-01       1.705404290818e+03 
       1.157079796381e-01       1.662685128542e+03 
       1.196410111965e-01       1.627237962164e+03 
       1.236919598692e-01       1.590262735066e+03 
       1.278669840146e-01       1.543765673584e+03 
       1.321722092155e-01       1.482026272798e+03 
       1.366137441066e-01       1.403192370132e+03 
       1.411976925750e-01       1.310008795461e+03 
       1.459301635714e-01       1.209124182721e+03 
       1.508172796272e-01       1.109158238986e+03 
       1.558651850796e-01       1.018848931792e+03 
       1.610800549478e-01       9.444921640669e+02 
       1.664681053693e-01       8.887684170590e+02 
       1.720356064801e-01       8.502357890992e+02 
       1.777888986109e-01       8.237501694482e+02 
       1.837344126562e-01       8.017736358235e+02 
       1.898786954742e-01       7.767592060304e+02 
       1.962284411686e-01       7.425277374398e+02 
       2.027905291183e-01       6.981199830133e+02 
       2.095720696439e-01       6.478331592538e+02 
       2.165804582484e-01       5.986960153306e+02 
       2.238234394563e-01       5.567368374545e+02 
       2.313091814004e-01       5.246398881869e+02 
       2.390463625039e-01       5.015415505204e+02 
       2.470442718763e-01       4.832099362159e+02 
       2.553129254219e-01       4.640343391244e+02 
       2.638632001762e-01       4.406075624733e+02 
       2.727069900695e-01       4.134973614198e+02 
       2.818573872321e-01       3.862273899511e+02 
       2.913288941597e-01       3.627680854304e+02 
       3.011376736521e-01       3.444294022098e+02 
       3.113018455611e-01       3.291984251510e+02 
       3.218418422208e-01       3.141442470977e+02 
       3.327808382702e-01       2.975037353259e+02 
       3.441452758239e-01       2.801922497732e+02 
       3.559655132053e-01       2.643382427514e+02 
       3.682766356513e-01       2.508599593598e+02 
       3.811194809327e-01       2.387556188135e+02 
       3.945419539064e-01       2.265419011817e+02 
       4.086007351198e-01       2.141884213778e+02 
       4.233635354156e-01       2.025278142124e+02 
       4.389121205044e-01       1.919303415878e+02 
       4.553464429038e-01       1.819289558997e+02 
       4.727904020176e-01       1.719868502869e+02 
       4.914000583690e-01       1.623768967446e+02 
       5.113756529495e-01       1.533716943914e+02 
       5.329797192948e-01       1.445765627167e+02 
       5.565653181731e-01       1.359412995186e+02 
       5.826218225509e-01       1.275576597328e+02 
       6.118526730278e-01       1.192384450795e+02 
       6.453148169173e-01       1.109270096306e+02 
       6.846853207138e-01       1.024906956288e+02 
       7.328103594254e-01       9.374233641370e+01 
       7.949290364288e-01       8.440241096674e+01 
       8.815651319942e-01       7.405418899444e+01 
       1.014743598918e+00       6.221238430318e+01 
       1.230540416150e+00       4.919133815647e+01 
       1.542045820487e+00       3.738029499554e+01 
       1.941099940515e+00       2.806465339957e+01 
       2.443698616020e+00       2.079072875534e+01 
       3.076434285013e+00       1.511607428565e+01 
       3.873001299118e+00       1.073955770011e+01 
       4.875819755371e+00       7.432643919061e+00 
       6.138293393364e+00       5.001850901931e+00 
       7.727653537955e+00       3.273236612341e+00 
       9.728539412472e+00       2.087407548302e+00 
       1.224750548600e+01       1.301735728615e+00 
