# Matter power spectrum P(k) at redshift z=1
# for k=1.02093e-05 to 10.2234 h/Mpc,
# number of wavenumbers equal to 122
#    1:k (h/Mpc)              2:P (Mpc/h)^3        
       1.020932608477e-05       2.910781814494e+01 
       1.285278004541e-05       3.610100192650e+01 
       1.618069141137e-05       4.477427031514e+01 
       2.037028359817e-05       5.553124498251e+01 
       2.564466766719e-05       6.887247075978e+01 
       3.228472380324e-05       8.541867741180e+01 
       4.064405920865e-05       1.059396240206e+02 
       5.116783897624e-05       1.313897275054e+02 
       6.441649275378e-05       1.629522282510e+02 
       8.109555966639e-05       2.020936665077e+02 
       1.020932608477e-04       2.506310348599e+02 
       1.285278004541e-04       3.108141474680e+02 
       1.618069141137e-04       3.854261202391e+02 
       2.037028359817e-04       4.779046943758e+02 
       2.564466766719e-04       5.924865316024e+02 
       3.228472380324e-04       7.343747466661e+02 
       4.064405920866e-04       9.099263248202e+02 
       5.116783897624e-04       1.126850188997e+03 
       6.441649275378e-04       1.394399181410e+03 
       8.109555966639e-04       1.723531879695e+03 
       1.020932608477e-03       2.127009330381e+03 
       1.285278004541e-03       2.619349353136e+03 
       1.618069141137e-03       3.216331895451e+03 
       2.037028359817e-03       3.934322526496e+03 
       2.564466766719e-03       4.788376915140e+03 
       3.228472380324e-03       5.789571339336e+03 
       4.064405920866e-03       6.940968116832e+03 
       5.116783897624e-03       8.204958506808e+03 
       6.441649275378e-03       9.590262725198e+03 
       8.109555966639e-03       1.101421122829e+04 
       1.020932608477e-02       1.237075782941e+04 
       1.285278004541e-02       1.350516240468e+04 
       1.618069140978e-02       1.421854383550e+04 
       2.037027997882e-02       1.430444581027e+04 
       2.564343922001e-02       1.364641814292e+04 
       3.219683038482e-02       1.237656792779e+04 
       3.909102670032e-02       1.109611378232e+04 
       4.415802721356e-02       1.033318886973e+04 
       4.805513143586e-02       9.843559820933e+03 
       5.140649661330e-02       9.469017208804e+03 
       5.446685502064e-02       9.147572753879e+03 
       5.735950435687e-02       8.849870543822e+03 
       6.015380899292e-02       8.559548997024e+03 
       6.289323172113e-02       8.268273385144e+03 
       6.560729438660e-02       7.971742092121e+03 
       6.831736854385e-02       7.668703570113e+03 
       7.103975854801e-02       7.361120543964e+03 
       7.378746794800e-02       7.052205015026e+03 
       7.657127195244e-02       6.746725136384e+03 
       7.940039981529e-02       6.449624606208e+03 
       8.228298601963e-02       6.166441211391e+03 
       8.522637820683e-02       5.901721032309e+03 
       8.823735291329e-02       5.658992169080e+03 
       9.132226998953e-02       5.439897986437e+03 
       9.448718503982e-02       5.244304123264e+03 
       9.773793237787e-02       5.069793561772e+03 
       1.010801868069e-01       4.912309770843e+03 
       1.045195099007e-01       4.765859413116e+03 
       1.080613847724e-01       4.623631650329e+03 
       1.117112422126e-01       4.479072568139e+03 
       1.154744803483e-01       4.326741556908e+03 
       1.193564794902e-01       4.163591835327e+03 
       1.233626135089e-01       3.989955148619e+03 
       1.274982588703e-01       3.809422213192e+03 
       1.317688023160e-01       3.628237684608e+03 
       1.361796480891e-01       3.453875463589e+03 
       1.407362255435e-01       3.293244557305e+03 
       1.454439979446e-01       3.150777206648e+03 
       1.503084732428e-01       3.027285569277e+03 
       1.553352175890e-01       2.919521216655e+03 
       1.605298723507e-01       2.820933360165e+03 
       1.658981753825e-01       2.724068292077e+03 
       1.714459873009e-01       2.622559841168e+03 
       1.771793235226e-01       2.513017734568e+03 
       1.831043928412e-01       2.397449327750e+03 
       1.892276433577e-01       2.282311193617e+03 
       1.955558166427e-01       2.174802265280e+03 
       2.020960111150e-01       2.079219768180e+03 
       2.088557557748e-01       1.995887553503e+03 
       2.158430956555e-01       1.921273991946e+03 
       2.230666906652e-01       1.849406757532e+03 
       2.305359299165e-01       1.775311017883e+03 
       2.382610642055e-01       1.698131020698e+03 
       2.462533600555e-01       1.621006403284e+03 
       2.545252797350e-01       1.548496109757e+03 
       2.630906929776e-01       1.483574797514e+03 
       2.719651278744e-01       1.424969584202e+03 
       2.811660707486e-01       1.368836194299e+03 
       2.907133279669e-01       1.312427972075e+03 
       3.006294669333e-01       1.255763045115e+03 
       3.109403594311e-01       1.201462006030e+03 
       3.216758587691e-01       1.151241406854e+03 
       3.328706539525e-01       1.104445617875e+03 
       3.445653611043e-01       1.058919072060e+03 
       3.568079373409e-01       1.013868949316e+03 
       3.696555397430e-01       9.703224439946e+02 
       3.831770093418e-01       9.290995770148e+02 
       3.974562497443e-01       8.895268897347e+02 
       4.125969141264e-01       8.508048399935e+02 
       4.287290525143e-01       8.129487664673e+02 
       4.460187776921e-01       7.763338418070e+02 
       4.646827267939e-01       7.405255279691e+02 
       4.850104191053e-01       7.050798173874e+02 
       5.074001621505e-01       6.700600128462e+02 
       5.324193410296e-01       6.350108992403e+02 
       5.609110957942e-01       5.995251296071e+02 
       5.941951068335e-01       5.630527781551e+02 
       6.344736881077e-01       5.247105886724e+02 
       6.857208204487e-01       4.831428848517e+02 
       7.557658539584e-01       4.361514065742e+02 
       8.610223260191e-01       3.804355553295e+02 
       1.031516588260e+00       3.139290691877e+02 
       1.287441072124e+00       2.448981361385e+02 
       1.620295674882e+00       1.844689730987e+02 
       2.039826716156e+00       1.339824972926e+02 
       2.567989681038e+00       9.341786272778e+01 
       3.232907466683e+00       6.263574954035e+01 
       4.069989363786e+00       4.062727100508e+01 
       5.123813035802e+00       2.566868421164e+01 
       6.450498436053e+00       1.589559715203e+01 
       8.120696399886e+00       9.697417994350e+00 
       1.022335105928e+01       5.851537513240e+00 
