# Matter power spectrum P(k) at redshift z=2
# for k=9.35415e-06 to 11.7913 h/Mpc,
# number of wavenumbers equal to 123
#    1:k (h/Mpc)              2:P (Mpc/h)^3        
       9.354145868323e-06       1.067151214766e+01 
       1.177617193926e-05       1.340278685834e+01 
       1.482532210799e-05       1.683308518182e+01 
       1.866397473979e-05       2.114129319092e+01 
       2.349655208500e-05       2.655205066791e+01 
       2.958040650936e-05       3.334744903033e+01 
       3.723952544583e-05       4.188166358091e+01 
       4.688178490691e-05       5.259932758057e+01 
       5.902067036958e-05       6.605844990076e+01 
       7.430262174939e-05       8.295906588825e+01 
       9.354145868323e-05       1.041787625142e+02 
       1.177617193926e-04       1.308165530592e+02 
       1.482532210799e-04       1.642464395464e+02 
       1.866397473979e-04       2.061816982245e+02 
       2.349655208500e-04       2.587498765846e+02 
       2.958040650936e-04       3.245761719813e+02 
       3.723952544583e-04       4.068684153147e+02 
       4.688178490691e-04       5.094896435368e+02 
       5.902067036958e-04       6.369948272975e+02 
       7.430262174939e-04       7.946010823819e+02 
       9.354145868323e-04       9.880626128412e+02 
       1.177617193926e-03       1.223423004631e+03 
       1.482532210799e-03       1.506553675833e+03 
       1.866397473979e-03       1.842238706369e+03 
       2.349655208500e-03       2.232697999598e+03 
       2.958040650936e-03       2.675836838450e+03 
       3.723952544583e-03       3.163076484026e+03 
       4.688178490691e-03       3.676935472014e+03 
       5.902067036958e-03       4.188863872902e+03 
       7.430262174939e-03       4.657904309885e+03 
       9.354145868323e-03       5.029804227370e+03 
       1.177617193926e-02       5.239886102284e+03 
       1.482532210799e-02       5.218815444954e+03 
       1.866397471847e-02       4.910481672298e+03 
       2.349652556479e-02       4.308174761724e+03 
       2.957492930110e-02       3.505296027290e+03 
       3.698086866379e-02       2.728562047453e+03 
       4.392736321859e-02       2.263696102841e+03 
       4.889731300064e-02       2.051835200881e+03 
       5.287565176896e-02       1.926019060442e+03 
       5.637235456058e-02       1.831570622889e+03 
       5.960440223691e-02       1.748374061342e+03 
       6.268221324087e-02       1.667480771250e+03 
       6.567016552234e-02       1.584809766978e+03 
       6.860967093457e-02       1.498923441602e+03 
       7.152943796887e-02       1.410092710346e+03 
       7.445059708215e-02       1.319673138564e+03 
       7.738949508998e-02       1.229701459427e+03 
       8.035932626452e-02       1.142495766613e+03 
       8.337113758084e-02       1.060354266215e+03 
       8.643447619022e-02       9.852859781003e+02 
       8.955782185290e-02       9.187617548295e+02 
       9.274888453769e-02       8.615929037029e+02 
       9.601481435365e-02       8.138434086874e+02 
       9.936235264712e-02       7.748261987583e+02 
       1.027979424981e-01       7.431248249409e+02 
       1.063278105015e-01       7.167458816074e+02 
       1.099580278005e-01       6.932860088549e+02 
       1.136945558605e-01       6.702094165048e+02 
       1.175432808684e-01       6.452222192189e+02 
       1.215100395951e-01       6.166749062226e+02 
       1.256006388585e-01       5.839199367168e+02 
       1.298208702638e-01       5.475107216155e+02 
       1.341765215876e-01       5.090845197145e+02 
       1.386733859691e-01       4.709754059410e+02 
       1.433172699392e-01       4.355948013198e+02 
       1.481140012328e-01       4.048674559002e+02 
       1.530694372774e-01       3.797031316043e+02 
       1.581894752158e-01       3.598761333083e+02 
       1.634800643022e-01       3.440677897342e+02 
       1.689472214954e-01       3.302049920498e+02 
       1.745970510646e-01       3.160756125553e+02 
       1.804357690159e-01       3.000604322931e+02 
       1.864697331529e-01       2.817026783385e+02 
       1.927054795882e-01       2.618934224579e+02 
       1.991497665543e-01       2.423356944849e+02 
       2.058096264063e-01       2.248258454355e+02 
       2.126924267918e-01       2.102881719960e+02 
       2.198059420921e-01       1.983750333269e+02 
       2.271584364235e-01       1.880259758404e+02 
       2.347587597546e-01       1.780497585289e+02 
       2.426164590651e-01       1.675293725615e+02 
       2.507419069648e-01       1.563084323956e+02 
       2.591464508602e-01       1.451821397580e+02 
       2.678425866338e-01       1.350837983128e+02 
       2.768441619669e-01       1.263703206665e+02 
       2.861666159785e-01       1.187810864551e+02 
       2.958272639001e-01       1.115693244483e+02 
       3.058456382550e-01       1.042617519310e+02 
       3.162439017196e-01       9.702565610970e+01 
       3.270473519253e-01       9.020335954713e+01 
       3.382850454967e-01       8.409491950813e+01 
       3.499905785110e-01       7.851505244918e+01 
       3.622030746825e-01       7.315054763091e+01 
       3.749684530654e-01       6.790363208381e+01 
       3.883410773520e-01       6.296687056501e+01 
       4.023859344947e-01       5.839026966510e+01 
       4.171815607020e-01       5.408283601796e+01 
       4.328240437893e-01       4.995528114626e+01 
       4.494326105373e-01       4.603029199740e+01 
       4.671576073874e-01       4.232030260794e+01 
       4.861921993867e-01       3.879747589737e+01 
       5.067900363921e-01       3.541182366775e+01 
       5.292928595555e-01       3.217900123638e+01 
       5.541753945483e-01       2.906609652691e+01 
       5.821218468514e-01       2.604851806270e+01 
       6.141636209317e-01       2.310460301948e+01 
       6.519438590062e-01       2.019521307771e+01 
       6.982649992243e-01       1.728447288821e+01 
       7.583155824141e-01       1.431666525474e+01 
       8.425726983655e-01       1.123253260745e+01 
       9.729053652045e-01       8.036005939626e+00 
       1.183700450145e+00       5.059431555148e+00 
       1.484565903366e+00       2.941162749359e+00 
       1.868800082594e+00       1.680953746554e+00 
       2.352679002150e+00       9.534529417227e-01 
       2.961847380785e+00       5.371660868311e-01 
       3.728744933526e+00       3.007890488545e-01 
       4.694211750915e+00       1.674849797547e-01 
       5.909662461569e+00       9.277993525420e-02 
       7.439824247996e+00       5.115584243839e-02 
       9.366183805084e+00       2.808252410757e-02 
       1.179132680376e+01       1.535394942366e-02 
