# Matter power spectrum P(k) at redshift z=0
# for k=8.53021e-06 to 10.7541 h/Mpc,
# number of wavenumbers equal to 123
#    1:k (h/Mpc)              2:P (Mpc/h)^3        
       8.530211119424e-06       6.250199478959e+01 
       1.073889954621e-05       7.808768047949e+01 
       1.351947353343e-05       9.755967707773e+01 
       1.702000878532e-05       1.218869315682e+02 
       2.142692156879e-05       1.522796554911e+02 
       2.697489605947e-05       1.902495704699e+02 
       3.395938212978e-05       2.376843484103e+02 
       4.275232913201e-05       2.969407964088e+02 
       5.382199355767e-05       3.709599832619e+02 
       6.775787540318e-05       4.634097392436e+02 
       8.530211119424e-05       5.788593510914e+02 
       1.073889954621e-04       7.229917718557e+02 
       1.351947353343e-04       9.028567767060e+02 
       1.702000878532e-04       1.127164734237e+03 
       2.142692156879e-04       1.406612067400e+03 
       2.697489605947e-04       1.754214148422e+03 
       3.395938212978e-04       2.185598557059e+03 
       4.275232913201e-04       2.719185847283e+03 
       5.382199355767e-04       3.376167547264e+03 
       6.775787540318e-04       4.180174090535e+03 
       8.530211119424e-04       5.156411556621e+03 
       1.073889954621e-03       6.329740513390e+03 
       1.351947353343e-03       7.721135145413e+03 
       1.702000878532e-03       9.342363216343e+03 
       2.142692156879e-03       1.118869992992e+04 
       2.697489605947e-03       1.323016509835e+04 
       3.395938212978e-03       1.540273375243e+04 
       4.275232913201e-03       1.759855285384e+04 
       5.382199355767e-03       1.966126869950e+04 
       6.775787540318e-03       2.136833368561e+04 
       8.530211119424e-03       2.249480417170e+04 
       1.073889954621e-02       2.274577278006e+04 
       1.351947353343e-02       2.184050889615e+04 
       1.702000878223e-02       1.958682280794e+04 
       2.142691550597e-02       1.605717455307e+04 
       2.697307790194e-02       1.182934553628e+04 
       3.384194886709e-02       8.051913256318e+03 
       4.088512165393e-02       5.954806566438e+03 
       4.600192330695e-02       5.227586676003e+03 
       4.997757455939e-02       4.929037514359e+03 
       5.341610883379e-02       4.761344975456e+03 
       5.656595855888e-02       4.625432059709e+03 
       5.954890379910e-02       4.478430630435e+03 
       6.243407871322e-02       4.299964250950e+03 
       6.526508965336e-02       4.082626286252e+03 
       6.807170783860e-02       3.828256496165e+03 
       7.087557478265e-02       3.544266543084e+03 
       7.369325818818e-02       3.242795999474e+03 
       7.653801095607e-02       2.938478752653e+03 
       7.942084317244e-02       2.645458661027e+03 
       8.235120627318e-02       2.376630047852e+03 
       8.533744654237e-02       2.141727381399e+03 
       8.838711526531e-02       1.946952724755e+03 
       9.150718639521e-02       1.794999099457e+03 
       9.470421256983e-02       1.684518070045e+03 
       9.798443883782e-02       1.611154721128e+03 
       1.013538866314e-01       1.567885715108e+03 
       1.048184163377e-01       1.544913983879e+03 
       1.083837741868e-01       1.530923749849e+03 
       1.120556274800e-01       1.513025073316e+03 
       1.158395910737e-01       1.479792677626e+03 
       1.197412473012e-01       1.422964765466e+03 
       1.237661610263e-01       1.340048195682e+03 
       1.279198911993e-01       1.235548862492e+03 
       1.322080000677e-01       1.119408348013e+03 
       1.366360610576e-01       1.004415772686e+03 
       1.412096662479e-01       9.029720545060e+02 
       1.459344343041e-01       8.232590137439e+02 
       1.508160197033e-01       7.684279475986e+02 
       1.558601240582e-01       7.361865307435e+02 
       1.610725103358e-01       7.194073129611e+02 
       1.664590207530e-01       7.079798480671e+02 
       1.720255991302e-01       6.913288751325e+02 
       1.777783184784e-01       6.612502661421e+02 
       1.837234146056e-01       6.164603440881e+02 
       1.898673265467e-01       5.629144794266e+02 
       1.962167446640e-01       5.105494955827e+02 
       2.027786673327e-01       4.674006417423e+02 
       2.095604672400e-01       4.368346778344e+02 
       2.165699684896e-01       4.175370155137e+02 
       2.238155359411e-01       4.040940882556e+02 
       2.313061785436e-01       3.891018524832e+02 
       2.390516688686e-01       3.679377163606e+02 
       2.470626816453e-01       3.414818454154e+02 
       2.553509548973e-01       3.144672414040e+02 
       2.639294783296e-01       2.919670702388e+02 
       2.728127150028e-01       2.757484731279e+02 
       2.820168641783e-01       2.631614756871e+02 
       2.915601756864e-01       2.505163450830e+02 
       3.014633294940e-01       2.355985898639e+02 
       3.117498986955e-01       2.195129025455e+02 
       3.224469204196e-01       2.050516317338e+02 
       3.335856079357e-01       1.932998527219e+02 
       3.452022497430e-01       1.830844412618e+02 
       3.573393594965e-01       1.725415606314e+02 
       3.700471672209e-01       1.617010898055e+02 
       3.833855821765e-01       1.515231109124e+02 
       3.974268189072e-01       1.425055782734e+02 
       4.122589739631e-01       1.341010911784e+02 
       4.279909952530e-01       1.256932236320e+02 
       4.447597418516e-01       1.175867378666e+02 
       4.627402697447e-01       1.101380619462e+02 
       4.821612551108e-01       1.029134308528e+02 
       5.033289003907e-01       9.585112416889e+01 
       5.266654422732e-01       8.909256103761e+01 
       5.527740381463e-01       8.246873397093e+01 
       5.825540560395e-01       7.593167255677e+01 
       6.174191333249e-01       6.940416984881e+01 
       6.597406790338e-01       6.276459097663e+01 
       7.138244001710e-01       5.585251727614e+01 
       7.882061670414e-01       4.842448454103e+01 
       9.007912805983e-01       4.022815317542e+01 
       1.083372896553e+00       3.148521149922e+01 
       1.354164473538e+00       2.373125990344e+01 
       1.704406171651e+00       1.789780896258e+01 
       2.145717004879e+00       1.353081014151e+01 
       2.701297659410e+00       1.018965929003e+01 
       3.400732268251e+00       7.598788780767e+00 
       4.281268271209e+00       5.583048659380e+00 
       5.389797421334e+00       4.024665519005e+00 
       6.785352938140e+00       2.837428301500e+00 
       8.542253241816e+00       1.952146402305e+00 
       1.075405968010e+01       1.309504548892e+00 
