# Matter power spectrum P(k) at redshift z=0.5
# for k=1.00995e-05 to 10.1109 h/Mpc,
# number of wavenumbers equal to 122
#    1:k (h/Mpc)              2:P (Mpc/h)^3        
       1.009947568610e-05       2.511281718747e+01 
       1.271448658703e-05       3.149232166355e+01 
       1.600659026233e-05       3.949239296523e+01 
       2.015110323742e-05       4.952465283870e+01 
       2.536873594127e-05       6.210523001545e+01 
       3.193734634157e-05       7.788129200044e+01 
       4.020673689467e-05       9.766413708544e+01 
       5.061728280202e-05       1.224707416404e+02 
       6.372338359544e-05       1.535755815672e+02 
       8.022298693380e-05       1.925751335493e+02 
       1.009947568610e-04       2.414680362873e+02 
       1.271448658703e-04       3.027538811787e+02 
       1.600659026233e-04       3.795539691156e+02 
       2.015110323742e-04       4.757565715192e+02 
       2.536873594127e-04       5.961875121646e+02 
       3.193734634157e-04       7.468028682175e+02 
       4.020673689467e-04       9.348935415319e+02 
       5.061728280202e-04       1.169281414593e+03 
       6.372338359544e-04       1.460476241199e+03 
       8.022298693380e-04       1.820753439103e+03 
       1.009947568610e-03       2.264088404672e+03 
       1.271448658703e-03       2.805785673641e+03 
       1.600659026233e-03       3.461503348901e+03 
       2.015110323742e-03       4.245410671758e+03 
       2.536873594127e-03       5.167537000396e+03 
       3.193734634157e-03       6.229631542791e+03 
       4.020673689467e-03       7.420092220056e+03 
       5.061728280202e-03       8.707483363674e+03 
       6.372338359544e-03       1.001317882867e+04 
       8.022298693380e-03       1.127811073893e+04 
       1.009947568610e-02       1.235619439683e+04 
       1.271448658703e-02       1.307824142251e+04 
       1.600659026232e-02       1.324776247325e+04 
       2.015110317605e-02       1.268600910398e+04 
       2.536867628512e-02       1.133397345904e+04 
       3.192727022331e-02       9.402350116805e+03 
       3.980669818599e-02       7.495773865333e+03 
       4.681575703143e-02       6.379915121375e+03 
       5.184750997737e-02       5.853296209485e+03 
       5.593700720785e-02       5.532541588426e+03 
       5.956041928589e-02       5.290912369951e+03 
       6.292493399484e-02       5.078671930533e+03 
       6.613808494132e-02       4.872824725110e+03 
       6.926345421934e-02       4.661277662228e+03 
       7.234237100758e-02       4.439695083315e+03 
       7.540372234215e-02       4.207704458959e+03 
       7.846891351013e-02       3.967744165715e+03 
       8.155459827582e-02       3.725058491089e+03 
       8.467428448972e-02       3.485660285070e+03 
       8.783932961102e-02       3.256006172954e+03 
       9.105958509059e-02       3.042192625274e+03 
       9.434382849734e-02       2.849058400633e+03 
       9.770006191049e-02       2.680060050194e+03 
       1.011357229926e-01       2.536638953002e+03 
       1.046578372451e-01       2.417970497848e+03 
       1.082731295438e-01       2.321371844154e+03 
       1.119881067904e-01       2.242111428557e+03 
       1.158091196451e-01       2.174141646414e+03 
       1.197424088433e-01       2.110291617415e+03 
       1.237941400062e-01       2.043868036452e+03 
       1.279704298135e-01       1.969067970171e+03 
       1.322773657072e-01       1.882597500907e+03 
       1.367210208365e-01       1.784315328279e+03 
       1.413074656459e-01       1.677558255190e+03 
       1.460427773055e-01       1.568192828947e+03 
       1.509330480501e-01       1.463170787355e+03 
       1.559843934115e-01       1.369010079669e+03 
       1.612029612741e-01       1.289818105703e+03 
       1.665949426507e-01       1.226642295341e+03 
       1.721665850571e-01       1.177075363155e+03 
       1.779242093465e-01       1.135853407833e+03 
       1.838742308593e-01       1.096469659195e+03 
       1.900231857361e-01       1.053338230788e+03 
       1.963777632450e-01       1.003065796653e+03 
       2.029448449854e-01       9.464195978129e+02 
       2.097315518611e-01       8.878003375105e+02 
       2.167452997667e-01       8.331400045096e+02 
       2.239938650272e-01       7.863843143732e+02 
       2.314854607653e-01       7.482641390098e+02 
       2.392288255812e-01       7.167686206947e+02 
       2.472333262184e-01       6.880541715303e+02 
       2.555090762896e-01       6.580073320787e+02 
       2.640670736808e-01       6.250503895489e+02 
       2.729193599685e-01       5.908352297996e+02 
       2.820792061480e-01       5.584167915565e+02 
       2.915613302302e-01       5.302194624696e+02 
       3.013821539423e-01       5.062593336674e+02 
       3.115601079947e-01       4.842753987989e+02 
       3.221159983659e-01       4.621600533307e+02 
       3.330734501041e-01       4.394217667529e+02 
       3.444594506880e-01       4.172424542258e+02 
       3.563050226880e-01       3.970992347418e+02 
       3.686460663020e-01       3.789579292387e+02 
       3.815244278429e-01       3.617654009995e+02 
       3.949892727996e-01       3.446469224597e+02 
       4.090988754907e-01       3.280330898992e+02 
       4.239229878171e-01       3.124418419567e+02 
       4.395460275983e-01       2.977995846760e+02 
       4.560714503864e-01       2.836576663034e+02 
       4.736278692331e-01       2.698372702344e+02 
       4.923778227500e-01       2.565706266612e+02 
       5.125306733211e-01       2.438326710072e+02 
       5.343621627857e-01       2.313213217431e+02 
       5.582451143648e-01       2.190697008277e+02 
       5.846996324049e-01       2.070002287707e+02 
       6.144791896976e-01       1.949341110277e+02 
       6.487267921909e-01       1.827512053004e+02 
       6.892776140464e-01       1.702138399370e+02 
       7.392916545385e-01       1.569962310850e+02 
       8.046845041879e-01       1.425814572732e+02 
       8.975147592699e-01       1.261661327344e+02 
       1.042742902000e+00       1.068156933546e+02 
       1.276206925440e+00       8.524699999143e+01 
       1.602548085346e+00       6.556026735817e+01 
       2.017393635814e+00       4.946982794322e+01 
       2.539747671114e+00       3.650129748356e+01 
       3.197352882405e+00       2.621027246223e+01 
       4.025228794133e+00       1.825619396984e+01 
       5.067462817219e+00       1.232269036414e+01 
       6.379557713920e+00       8.074252997183e+00 
       8.031387322061e+00       5.153900343039e+00 
       1.011091759170e+01       3.218228450581e+00 
