# Matter power spectrum P(k) at redshift z=2
# for k=7.84939e-06 to 12.4569 h/Mpc,
# number of wavenumbers equal to 124
#    1:k (h/Mpc)              2:P (Mpc/h)^3        
       7.849394252615e-06       2.670530312935e+01 
       9.881801891809e-06       3.319451950485e+01 
       1.244045151591e-05       4.126051377334e+01 
       1.566160054758e-05       5.128636485136e+01 
       1.971678691871e-05       6.374813767260e+01 
       2.482196409090e-05       7.923747257675e+01 
       3.124900136468e-05       9.848944074695e+01 
       3.934016191118e-05       1.224171667200e+02 
       4.952632953408e-05       1.521545034152e+02 
       6.234995480335e-05       1.891085846743e+02 
       7.849394252615e-05       2.350240361604e+02 
       9.881801891809e-05       2.920607315174e+02 
       1.244045151591e-04       3.628864247822e+02 
       1.566160054758e-04       4.507841292608e+02 
       1.971678691871e-04       5.597709425128e+02 
       2.482196409090e-04       6.947186594747e+02 
       3.124900136468e-04       8.614555144710e+02 
       3.934016191118e-04       1.066812128717e+03 
       4.952632953408e-04       1.318557143231e+03 
       6.234995480335e-04       1.625162488891e+03 
       7.849394252615e-04       1.995359888014e+03 
       9.881801891809e-04       2.437457772041e+03 
       1.244045151591e-03       2.958214573705e+03 
       1.566160054758e-03       3.560789629981e+03 
       1.971678691871e-03       4.241875708398e+03 
       2.482196409090e-03       4.988773793947e+03 
       3.124900136468e-03       5.776225468449e+03 
       3.934016191118e-03       6.563436266367e+03 
       4.952632953408e-03       7.292668662498e+03 
       6.234995480335e-03       7.889759692342e+03 
       7.849394252615e-03       8.265910973655e+03 
       9.881801891809e-03       8.325572430002e+03 
       1.244045151591e-02       7.978887320599e+03 
       1.566160053333e-02       7.173655039150e+03 
       1.971676816175e-02       5.953093352196e+03 
       2.481790582893e-02       4.526104078104e+03 
       3.104961750418e-02       3.280521924605e+03 
       3.696476284193e-02       2.605509246866e+03 
       4.119816650626e-02       2.331856424615e+03 
       4.457470262109e-02       2.184217386302e+03 
       4.753676998434e-02       2.078665552878e+03 
       5.027168451860e-02       1.985568382228e+03 
       5.287433082988e-02       1.892178459399e+03 
       5.539984916086e-02       1.792920836215e+03 
       5.788362314083e-02       1.686281262675e+03 
       6.035013572085e-02       1.573228541011e+03 
       6.281737926699e-02       1.456416593950e+03 
       6.529925471555e-02       1.339382344340e+03 
       6.780696954471e-02       1.226032543989e+03 
       7.034989814427e-02       1.120108487937e+03 
       7.293613534299e-02       1.024656368425e+03 
       7.557286574913e-02       9.419218019415e+02 
       7.826661773238e-02       8.729691522167e+02 
       8.102344247237e-02       8.178159375093e+02 
       8.384904276166e-02       7.753086114440e+02 
       8.674886716092e-02       7.434310787914e+02 
       8.972817966550e-02       7.192153509257e+02 
       9.279211168787e-02       6.991546899821e+02 
       9.594570103936e-02       6.795075344288e+02 
       9.919392122501e-02       6.568216393775e+02 
       1.025417034675e-01       6.285313975849e+02 
       1.059939532808e-01       5.935690417041e+02 
       1.095555630177e-01       5.526617516381e+02 
       1.132314215529e-01       5.082000980960e+02 
       1.170264220867e-01       4.635942560938e+02 
       1.209454689440e-01       4.224471526322e+02 
       1.249934841681e-01       3.875171351183e+02 
       1.291754146640e-01       3.601889416004e+02 
       1.334962406182e-01       3.401994491482e+02 
       1.379609859024e-01       3.258133730736e+02 
       1.425747311586e-01       3.141707552058e+02 
       1.473426302531e-01       3.021354287474e+02 
       1.522699307851e-01       2.873087027065e+02 
       1.573619993317e-01       2.688728234591e+02 
       1.626243521253e-01       2.479059538447e+02 
       1.680626918732e-01       2.267938579683e+02 
       1.736829514755e-01       2.080801275257e+02 
       1.794913454627e-01       1.931249911711e+02 
       1.854944300787e-01       1.816494984569e+02 
       1.916991730965e-01       1.723255848547e+02 
       1.981130346709e-01       1.635080968555e+02 
       2.047440608448e-01       1.537636215669e+02 
       2.116009917393e-01       1.427742929210e+02 
       2.186933870162e-01       1.315845586920e+02 
       2.260317719377e-01       1.214794394741e+02 
       2.336278083272e-01       1.130872101801e+02 
       2.414944960220e-01       1.061351773334e+02 
       2.496464121303e-01       9.962151044646e+01 
       2.580999977001e-01       9.287443188809e+01 
       2.668739045195e-01       8.600155865928e+01 
       2.759894190181e-01       7.948592549796e+01 
       2.854709861249e-01       7.379599213896e+01 
       2.953468642147e-01       6.872626626153e+01 
       3.056499540726e-01       6.387627111392e+01 
       3.164188619294e-01       5.905448817660e+01 
       3.276992819099e-01       5.452188573583e+01 
       3.395458213379e-01       5.036226296886e+01 
       3.520244509955e-01       4.649634933398e+01 
       3.652158548929e-01       4.279885430073e+01 
       3.792201037413e-01       3.926968780263e+01 
       3.941633256798e-01       3.596327372362e+01 
       4.102074772188e-01       3.284959725441e+01 
       4.275650846774e-01       2.985769580937e+01 
       4.465222560617e-01       2.701666824147e+01 
       4.674760567939e-01       2.429840528609e+01 
       4.909981039578e-01       2.167548849064e+01 
       5.179488644855e-01       1.913216758962e+01 
       5.496967688438e-01       1.663372626428e+01 
       5.885707282785e-01       1.415236689778e+01 
       6.388718055101e-01       1.164411382090e+01 
       7.092655470413e-01       9.062520491742e+00 
       8.178629374176e-01       6.417195866757e+00 
       9.936643121334e-01       3.980434450178e+00 
       1.245806560208e+00       2.267185918560e+00 
       1.568226925919e+00       1.268057020168e+00 
       1.974279814952e+00       7.037740452119e-01 
       2.485471028168e+00       3.879727637284e-01 
       3.129022637638e+00       2.125990548019e-01 
       3.939206112602e+00       1.158802216193e-01 
       4.959166677450e+00       6.286707804620e-02 
       6.243220951564e+00       3.396558238549e-02 
       7.859749507370e+00       1.828368461632e-02 
       9.894838385164e+00       9.809267883936e-03 
       1.245686348868e+01       5.246969913993e-03 
