# Matter power spectrum P(k) at redshift z=1
# for k=9.35415e-06 to 11.7913 h/Mpc,
# number of wavenumbers equal to 123
#    1:k (h/Mpc)              2:P (Mpc/h)^3        
       9.354145868323e-06       2.203460601200e+01 
       1.177617193926e-05       2.767416181145e+01 
       1.482532210799e-05       3.475706096810e+01 
       1.866397473979e-05       4.365264748454e+01 
       2.349655208500e-05       5.482475977476e+01 
       2.958040650936e-05       6.885583519446e+01 
       3.723952544583e-05       8.647711070725e+01 
       4.688178490691e-05       1.086065667061e+02 
       5.902067036958e-05       1.363961416661e+02 
       7.430262174939e-05       1.712908423339e+02 
       9.354145868323e-05       2.151018255286e+02 
       1.177617193926e-04       2.700966103663e+02 
       1.482532210799e-04       3.391088651292e+02 
       1.866397473979e-04       4.256696789032e+02 
       2.349655208500e-04       5.341597849929e+02 
       2.958040650936e-04       6.699774122672e+02 
       3.723952544583e-04       8.397077007107e+02 
       4.688178490691e-04       1.051266932130e+03 
       5.902067036958e-04       1.313981234480e+03 
       7.430262174939e-04       1.638552452920e+03 
       9.354145868323e-04       2.036858538045e+03 
       1.177617193926e-03       2.521468934317e+03 
       1.482532210799e-03       3.104563141325e+03 
       1.866397473979e-03       3.795940090492e+03 
       2.349655208500e-03       4.600185807729e+03 
       2.958040650936e-03       5.512981569498e+03 
       3.723952544583e-03       6.516655242892e+03 
       4.688178490691e-03       7.575188095415e+03 
       5.902067036958e-03       8.629723277536e+03 
       7.430262174939e-03       9.595861471908e+03 
       9.354145868323e-03       1.036201940910e+04 
       1.177617193926e-02       1.079485563741e+04 
       1.482532210799e-02       1.075141517215e+04 
       1.866397471847e-02       1.011621345880e+04 
       2.349652556479e-02       8.875256970948e+03 
       2.957492930110e-02       7.221347970955e+03 
       3.698086866379e-02       5.621124555261e+03 
       4.392736321859e-02       4.663457052885e+03 
       4.889731300064e-02       4.226953034022e+03 
       5.287565176896e-02       3.967831213662e+03 
       5.637235456058e-02       3.773194905680e+03 
       5.960440223691e-02       3.601829476849e+03 
       6.268221324087e-02       3.435192030547e+03 
       6.567016552234e-02       3.264890890546e+03 
       6.860967093457e-02       3.087959385067e+03 
       7.152943796887e-02       2.904930809518e+03 
       7.445059708215e-02       2.718675219720e+03 
       7.738949508998e-02       2.533316971418e+03 
       8.035932626452e-02       2.353675689812e+03 
       8.337113758084e-02       2.184391017035e+03 
       8.643447619022e-02       2.029759806130e+03 
       8.955782185290e-02       1.892712874878e+03 
       9.274888453769e-02       1.774942599847e+03 
       9.601481435365e-02       1.676580488011e+03 
       9.936235264712e-02       1.596197899681e+03 
       1.027979424981e-01       1.530925760633e+03 
       1.063278105015e-01       1.476559749208e+03 
       1.099580278005e-01       1.428246841149e+03 
       1.136945558605e-01       1.380712405932e+03 
       1.175432808684e-01       1.329234008602e+03 
       1.215100395951e-01       1.270417507970e+03 
       1.256006388585e-01       1.202944582607e+03 
       1.298208702638e-01       1.127922575718e+03 
       1.341765215876e-01       1.048760480280e+03 
       1.386733859691e-01       9.702523822213e+02 
       1.433172699392e-01       8.973680088980e+02 
       1.481140012328e-01       8.340759088174e+02 
       1.530694372774e-01       7.822238933854e+02 
       1.581894752158e-01       7.413813804919e+02 
       1.634800643022e-01       7.088105253177e+02 
       1.689472214954e-01       6.802527672134e+02 
       1.745970510646e-01       6.511546935127e+02 
       1.804357690159e-01       6.181617799204e+02 
       1.864697331529e-01       5.803330072142e+02 
       1.927054795882e-01       5.395212337126e+02 
       1.991497665543e-01       4.992288539011e+02 
       2.058096264063e-01       4.631618979734e+02 
       2.126924267918e-01       4.332125512137e+02 
       2.198059420921e-01       4.086751589379e+02 
       2.271584364235e-01       3.873499692930e+02 
       2.347587597546e-01       3.667971683101e+02 
       2.426164590651e-01       3.451253890002e+02 
       2.507419069648e-01       3.220138836486e+02 
       2.591464508602e-01       2.990852007254e+02 
       2.678425866338e-01       2.782895271541e+02 
       2.768441619669e-01       2.603334672454e+02 
       2.861666159785e-01       2.447001085606e+02 
       2.958272639001e-01       2.298412076354e+02 
       3.058456382550e-01       2.147888538994e+02 
       3.162439017196e-01       1.998813196759e+02 
       3.270473519253e-01       1.858270256801e+02 
       3.382850454967e-01       1.732418313566e+02 
       3.499905785110e-01       1.617492567817e+02 
       3.622030746825e-01       1.506989585159e+02 
       3.749684530654e-01       1.398896048011e+02 
       3.883410773520e-01       1.297183472122e+02 
       4.023859344947e-01       1.202892312944e+02 
       4.171815607020e-01       1.114172325854e+02 
       4.328240437893e-01       1.029123877561e+02 
       4.494326105373e-01       9.482808307369e+01 
       4.671576073874e-01       8.718366438257e+01 
       4.861921993867e-01       7.992631185736e+01 
       5.067900363921e-01       7.295149498992e+01 
       5.292928595555e-01       6.629159524517e+01 
       5.541753945483e-01       5.987873134615e+01 
       5.821218468514e-01       5.366224082452e+01 
       6.141636209317e-01       4.759790509556e+01 
       6.519438590062e-01       4.160429404287e+01 
       6.982649992243e-01       3.560813019573e+01 
       7.583155824141e-01       2.949408329995e+01 
       8.425726983655e-01       2.314038737246e+01 
       9.729053652045e-01       1.655515092050e+01 
       1.183700450145e+00       1.042304694563e+01 
       1.484565903366e+00       6.059151178149e+00 
       1.868800082594e+00       3.462906318234e+00 
       2.352679002150e+00       1.964190409657e+00 
       2.961847380785e+00       1.106596724482e+00 
       3.728744933526e+00       6.196474265009e-01 
       4.694211750915e+00       3.450327150314e-01 
       5.909662461569e+00       1.911328436206e-01 
       7.439824247996e+00       1.053840517145e-01 
       9.366183805084e+00       5.784985444275e-02 
       1.179132680376e+01       3.162875533311e-02 
