# Matter power spectrum P(k) at redshift z=2
# for k=1.14266e-05 to 11.4412 h/Mpc,
# number of wavenumbers equal to 122
#    1:k (h/Mpc)              2:P (Mpc/h)^3        
       1.142655368825e-05       4.208459796510e+00 
       1.438517880737e-05       5.265174113075e+00 
       1.810986715380e-05       6.587218364698e+00 
       2.279897196414e-05       8.241210528013e+00 
       2.870220516844e-05       1.031048978544e+01 
       3.613393546108e-05       1.289931389749e+01 
       4.548992958008e-05       1.613809754752e+01 
       5.726842832909e-05       2.018996508791e+01 
       7.209667971700e-05       2.525892433631e+01 
       9.076434220172e-05       3.160005687664e+01 
       1.142655368825e-04       3.953219849587e+01 
       1.438517880737e-04       4.945365438647e+01 
       1.810986715380e-04       6.186158611280e+01 
       2.279897196414e-04       7.737571585098e+01 
       2.870220516844e-04       9.676693204409e+01 
       3.613393546108e-04       1.209910775985e+02 
       4.548992958008e-04       1.512275249334e+02 
       5.726842832909e-04       1.889208611593e+02 
       7.209667971700e-04       2.358220577048e+02 
       9.076434220172e-04       2.940232207659e+02 
       1.142655368825e-03       3.659782819251e+02 
       1.438517880737e-03       4.544995294301e+02 
       1.810986715380e-03       5.627065581564e+02 
       2.279897196414e-03       6.938676658932e+02 
       2.870220516844e-03       8.510728705950e+02 
       3.613393546108e-03       1.036751266351e+03 
       4.548992958008e-03       1.251894660935e+03 
       5.726842832909e-03       1.493238044181e+03 
       7.209667971700e-03       1.758057529014e+03 
       9.076434220172e-03       2.034240117029e+03 
       1.142655368825e-02       2.303405395352e+03 
       1.438517880737e-02       2.539006070478e+03 
       1.810986715302e-02       2.706690847658e+03 
       2.279896978793e-02       2.769872908624e+03 
       2.870133477558e-02       2.703882549218e+03 
       3.606266682668e-02       2.519561079804e+03 
       4.404688750287e-02       2.300519084985e+03 
       5.003429630302e-02       2.153444432830e+03 
       5.457773433891e-02       2.052954068628e+03 
       5.845421055483e-02       1.972400003009e+03 
       6.197889305777e-02       1.901344602050e+03 
       6.530177503382e-02       1.834985007251e+03 
       6.850621811727e-02       1.770867511331e+03 
       7.164399495138e-02       1.707746700460e+03 
       7.475003311723e-02       1.645105474764e+03 
       7.784947894066e-02       1.582893986647e+03 
       8.096142861126e-02       1.521396091648e+03 
       8.410105259401e-02       1.461075388175e+03 
       8.728087906588e-02       1.402515279971e+03 
       9.051160723685e-02       1.346294918236e+03 
       9.380264331613e-02       1.292926310072e+03 
       9.716246529710e-02       1.242767418905e+03 
       1.005988779476e-01       1.195957076965e+03 
       1.041191949896e-01       1.152409959971e+03 
       1.077303715604e-01       1.111763709162e+03 
       1.114391018343e-01       1.073454115743e+03 
       1.152518916706e-01       1.036739293197e+03 
       1.191751130149e-01       1.000826336379e+03 
       1.232150447602e-01       9.649775959830e+02 
       1.273779034656e-01       9.286408743801e+02 
       1.316698664575e-01       8.915517423509e+02 
       1.360970892638e-01       8.538346847776e+02 
       1.406657189452e-01       8.159282320780e+02 
       1.453819046331e-01       7.785631727353e+02 
       1.502518064172e-01       7.425518006230e+02 
       1.552816036170e-01       7.086027357342e+02 
       1.604775034049e-01       6.771349940437e+02 
       1.658457507039e-01       6.481433912858e+02 
       1.713926402590e-01       6.212296433091e+02 
       1.771245317614e-01       5.957017433719e+02 
       1.830478688955e-01       5.707756183321e+02 
       1.891692031696e-01       5.458762816576e+02 
       1.954952233905e-01       5.207892844090e+02 
       2.020327916459e-01       4.957518095454e+02 
       2.087889866819e-01       4.713621890676e+02 
       2.157711555997e-01       4.482292095895e+02 
       2.229869748683e-01       4.267626616760e+02 
       2.304445217671e-01       4.069349966533e+02 
       2.381523575378e-01       3.882857540054e+02 
       2.461196237795e-01       3.702856742137e+02 
       2.543561539601e-01       3.526775298708e+02 
       2.628726023903e-01       3.354448421268e+02 
       2.716805936351e-01       3.187559000721e+02 
       2.807928961783e-01       3.029273478334e+02 
       2.902236252593e-01       2.881160969578e+02 
       2.999884812739e-01       2.741759538621e+02 
       3.101050320677e-01       2.608797738300e+02 
       3.205930500563e-01       2.480294493710e+02 
       3.314749185962e-01       2.356103312054e+02 
       3.427761267996e-01       2.237857797472e+02 
       3.545258785492e-01       2.125896414036e+02 
       3.667578506414e-01       2.019744192796e+02 
       3.795111480069e-01       1.918081810290e+02 
       3.928315227131e-01       1.820313548265e+02 
       4.067729509885e-01       1.726762904106e+02 
       4.213997036751e-01       1.637640254770e+02 
       4.367891083854e-01       1.552294622555e+02 
       4.530352998642e-01       1.470228324370e+02 
       4.702544124527e-01       1.391302339133e+02 
       4.885919279787e-01       1.315357991854e+02 
       5.082333336349e-01       1.241998683701e+02 
       5.294200219239e-01       1.170842108465e+02 
       5.524737906728e-01       1.101553623272e+02 
       5.778360375497e-01       1.033740724153e+02 
       6.061332728536e-01       9.668516086272e+01 
       6.382924204221e-01       9.002675260642e+01 
       6.757564714926e-01       8.331153931305e+01 
       7.209175048813e-01       7.641910503855e+01 
       7.780575333873e-01       6.916904415112e+01 
       8.555433902233e-01       6.129011041744e+01 
       9.708793369626e-01       5.243641184991e+01 
       1.157163170932e+00       4.256717518269e+01 
       1.441009920441e+00       3.307874526448e+01 
       1.813308476056e+00       2.544869720310e+01 
       2.282811173120e+00       1.942681477288e+01 
       2.873888978779e+00       1.459681830206e+01 
       3.618011866056e+00       1.072003715021e+01 
       4.554807078351e+00       7.654401150835e+00 
       5.734162376756e+00       5.295114884920e+00 
       7.218882731453e+00       3.544805985167e+00 
       9.088034915388e+00       2.300571007297e+00 
       1.144115809825e+01       1.453207898881e+00 
