# Matter power spectrum P(k) at redshift z=1
# for k=1.0937e-05 to 10.9483 h/Mpc,
# number of wavenumbers equal to 122
#    1:k (h/Mpc)              2:P (Mpc/h)^3        
       1.093697345639e-05       1.045823118976e+01 
       1.376883381237e-05       1.308963680233e+01 
       1.733393477717e-05       1.638311499900e+01 
       2.182213097736e-05       2.050524207488e+01 
       2.747243522690e-05       2.566447052425e+01 
       3.458574683101e-05       3.212167654784e+01 
       4.354087557144e-05       4.020329851207e+01 
       5.481471470865e-05       5.031776664916e+01 
       6.900763728697e-05       6.297598882160e+01 
       8.687546818844e-05       7.881685130167e+01 
       1.093697345639e-04       9.863886427747e+01 
       1.376883381237e-04       1.234392241297e+02 
       1.733393477717e-04       1.544616518280e+02 
       2.182213097736e-04       1.932542282313e+02 
       2.747243522690e-04       2.417378977274e+02 
       3.458574683101e-04       3.022849901678e+02 
       4.354087557144e-04       3.778045789998e+02 
       5.481471470865e-04       4.718274826635e+02 
       6.900763728697e-04       5.885788415526e+02 
       8.687546818844e-04       7.330221708048e+02 
       1.093697345639e-03       9.108544177949e+02 
       1.376883381237e-03       1.128409151129e+03 
       1.733393477717e-03       1.392359829126e+03 
       2.182213097736e-03       1.709065945573e+03 
       2.747243522690e-03       2.083602682678e+03 
       3.458574683101e-03       2.518233235532e+03 
       4.354087557144e-03       3.010389269332e+03 
       5.481471470865e-03       3.550050870893e+03 
       6.900763728697e-03       4.110965339060e+03 
       8.687546818844e-03       4.668030339298e+03 
       1.093697345639e-02       5.166663863685e+03 
       1.376883381237e-02       5.539585732523e+03 
       1.733393477714e-02       5.705294053418e+03 
       2.182213082881e-02       5.586100009526e+03 
       2.747231750228e-02       5.145715221607e+03 
       3.456890963378e-02       4.448576042110e+03 
       4.296383105722e-02       3.722763719396e+03 
       5.010790221199e-02       3.278355726697e+03 
       5.527756023803e-02       3.042862405489e+03 
       5.953000149085e-02       2.884585400899e+03 
       6.332179106420e-02       2.758243184861e+03 
       6.685555312943e-02       2.645232510405e+03 
       7.023815676114e-02       2.536640893388e+03 
       7.353352010993e-02       2.428025810059e+03 
       7.678354919095e-02       2.317419920793e+03 
       8.001773356257e-02       2.204648267633e+03 
       8.325804736306e-02       2.090599967277e+03 
       8.652166802474e-02       1.977045994763e+03 
       8.982258502832e-02       1.866049625405e+03 
       9.317260236979e-02       1.759919546504e+03 
       9.658199010009e-02       1.660739338076e+03 
       1.000599227310e-01       1.570200931398e+03 
       1.036147828105e-01       1.489449441069e+03 
       1.072543761540e-01       1.418807148073e+03 
       1.109860873839e-01       1.357760958357e+03 
       1.148169940306e-01       1.305112316641e+03 
       1.187539511710e-01       1.258837723790e+03 
       1.228036546848e-01       1.216458416620e+03 
       1.269726887283e-01       1.175305940575e+03 
       1.312675614187e-01       1.132852518170e+03 
       1.356947316624e-01       1.087227809414e+03 
       1.402606293616e-01       1.037565592830e+03 
       1.449716707632e-01       9.841791268452e+02 
       1.498342704029e-01       9.286418778221e+02 
       1.548548508955e-01       8.734149821286e+02 
       1.600398516863e-01       8.211069021012e+02 
       1.653957377958e-01       7.740006008480e+02 
       1.709290095368e-01       7.333468050801e+02 
       1.766462141491e-01       6.991189818011e+02 
       1.825539602766e-01       6.700190456696e+02 
       1.886589361972e-01       6.437118121883e+02 
       1.949679327078e-01       6.177073455651e+02 
       2.014878715599e-01       5.900651362823e+02 
       2.082258403470e-01       5.600734879887e+02 
       2.151891347554e-01       5.284701975376e+02 
       2.223853091269e-01       4.972036897047e+02 
       2.298222363416e-01       4.684766249173e+02 
       2.375081781270e-01       4.434779986813e+02 
       2.454518670603e-01       4.220072503665e+02 
       2.536626017506e-01       4.028703656069e+02 
       2.621503570097e-01       3.845663218567e+02 
       2.709259112575e-01       3.658208224392e+02 
       2.800009939962e-01       3.463896705625e+02 
       2.893884569761e-01       3.271914589377e+02 
       2.991024737150e-01       3.093672344208e+02 
       3.091587734116e-01       2.935019427113e+02 
       3.195749171163e-01       2.793156828212e+02 
       3.303706264501e-01       2.658333710202e+02 
       3.415681784249e-01       2.524007526925e+02 
       3.531928843341e-01       2.391280834334e+02 
       3.652736767476e-01       2.264993218286e+02 
       3.778438370721e-01       2.149312598621e+02 
       3.909419080231e-01       2.042027672022e+02 
       4.046128523821e-01       1.938940003673e+02 
       4.189095442326e-01       1.838101723184e+02 
       4.338947157038e-01       1.741990083877e+02 
       4.496435380590e-01       1.651548742587e+02 
       4.662471023821e-01       1.565599329460e+02 
       4.838172022380e-01       1.482604730990e+02 
       5.024930442358e-01       1.402570982553e+02 
       5.224508880104e-01       1.325926049861e+02 
       5.439182699019e-01       1.252051651758e+02 
       5.671956431949e-01       1.180011305345e+02 
       5.926904897745e-01       1.109881814926e+02 
       6.209733582086e-01       1.040978769240e+02 
       6.528744972844e-01       9.726018778300e+01 
       6.896603014482e-01       9.039825854250e+01 
       7.333778665765e-01       8.339428537836e+01 
       7.875814101838e-01       7.608062931178e+01 
       8.589876482781e-01       6.820045683101e+01 
       9.613894249703e-01       5.937991510873e+01 
       1.123022236225e+00       4.929139307836e+01 
       1.380831206787e+00       3.866428049800e+01 
       1.735241803748e+00       2.954456011241e+01 
       2.184478630317e+00       2.233492718520e+01 
       2.750095421501e+00       1.661567443152e+01 
       3.462165010856e+00       1.209199912522e+01 
       4.358607511991e+00       8.569277444641e+00 
       5.487161756882e+00       5.895328061119e+00 
       6.907927374364e+00       3.932609328865e+00 
       8.696565314416e+00       2.547065500912e+00 
       1.094832706965e+01       1.607157508087e+00 
