# Matter power spectrum P(k) at redshift z=2
# for k=7.28719e-06 to 11.5626 h/Mpc,
# number of wavenumbers equal to 124
#    1:k (h/Mpc)              2:P (Mpc/h)^3        
       7.287189692323e-06       3.937054486363e+01 
       9.174028284230e-06       4.920172785863e+01 
       1.154941733554e-05       6.148774933019e+01 
       1.453985497512e-05       7.684147988198e+01 
       1.830459291198e-05       9.602875116567e+01 
       2.304411716944e-05       1.200063660122e+02 
       2.901082469697e-05       1.499695330518e+02 
       3.652246442813e-05       1.874111173686e+02 
       4.597905856992e-05       2.341948343634e+02 
       5.788420524404e-05       2.926461615206e+02 
       7.287189692323e-05       3.656642164059e+02 
       9.174028284230e-05       4.568578932495e+02 
       1.154941733554e-04       5.707096241882e+02 
       1.453985497512e-04       7.127670642484e+02 
       1.830459291198e-04       8.898582769232e+02 
       2.304411716944e-04       1.110315343551e+03 
       2.901082469697e-04       1.384172897326e+03 
       3.652246442813e-04       1.723280514817e+03 
       4.597905856992e-04       2.141237735670e+03 
       5.788420524404e-04       2.653049657453e+03 
       7.287189692323e-04       3.274432633606e+03 
       9.174028284230e-04       4.020697089098e+03 
       1.154941733554e-03       4.904823256206e+03 
       1.453985497512e-03       5.933934425263e+03 
       1.830459291198e-03       7.104379827617e+03 
       2.304411716944e-03       8.396564246214e+03 
       2.901082469697e-03       9.769145465022e+03 
       3.652246442813e-03       1.115354587413e+04 
       4.597905856992e-03       1.244784375728e+04 
       5.788420524404e-03       1.352916711183e+04 
       7.287189692323e-03       1.424021465151e+04 
       9.174028284230e-03       1.441346073888e+04 
       1.154941733553e-02       1.389156838825e+04 
       1.453985493379e-02       1.258457827503e+04 
       1.830455202993e-02       1.057114696578e+04 
       2.303711328867e-02       8.214014600306e+03 
       2.872929082534e-02       6.184890340347e+03 
       3.381193800225e-02       5.111793017406e+03 
       3.745898987831e-02       4.635857667140e+03 
       4.041997610199e-02       4.350571457143e+03 
       4.304204119084e-02       4.132275471576e+03 
       4.547598403499e-02       3.935422545528e+03 
       4.779996348212e-02       3.740177779855e+03 
       5.006014753844e-02       3.538122645340e+03 
       5.228652395357e-02       3.327303636594e+03 
       5.450004054235e-02       3.109705607202e+03 
       5.671621225005e-02       2.889844553157e+03 
       5.894710517408e-02       2.673484252485e+03 
       6.120250272455e-02       2.466863551595e+03 
       6.349062836842e-02       2.275608706663e+03 
       6.581861328510e-02       2.104300045065e+03 
       6.819280988809e-02       1.955928290623e+03 
       7.061900826678e-02       1.831654964603e+03 
       7.310258926038e-02       1.730719783116e+03 
       7.564863485935e-02       1.650560160527e+03 
       7.826200907011e-02       1.586995724396e+03 
       8.094741783410e-02       1.534513604351e+03 
       8.370945377860e-02       1.486877131426e+03 
       8.655262979105e-02       1.437892919898e+03 
       8.948140425356e-02       1.382258028116e+03 
       9.250020001467e-02       1.316656820900e+03 
       9.561341867216e-02       1.240553579883e+03 
       9.882545140496e-02       1.156375581853e+03 
       1.021406873695e-01       1.068966433305e+03 
       1.055635205286e-01       9.843347228412e+02 
       1.090983556846e-01       9.081204435240e+02 
       1.127496144298e-01       8.441574857716e+02 
       1.165217416851e-01       7.936610485160e+02 
       1.204192134781e-01       7.550632276336e+02 
       1.244465465933e-01       7.244283502676e+02 
       1.286083107189e-01       6.965373581361e+02 
       1.329091437086e-01       6.663564794422e+02 
       1.373537705705e-01       6.308024811438e+02 
       1.419470267992e-01       5.898673468560e+02 
       1.466938866748e-01       5.466457709710e+02 
       1.515994971724e-01       5.053484083820e+02 
       1.566692181662e-01       4.697137956101e+02 
       1.619086696783e-01       4.409716831362e+02 
       1.673237870200e-01       4.174901676824e+02 
       1.729208848262e-01       3.964981117356e+02 
       1.787067311898e-01       3.754907098873e+02 
       1.846886333940e-01       3.529198683030e+02 
       1.908745371292e-01       3.290569663459e+02 
       1.972731416036e-01       3.060663436331e+02 
       2.038940336447e-01       2.857891747667e+02 
       2.107478448030e-01       2.684465603047e+02 
       2.178464366759e-01       2.530843236393e+02 
       2.252031212764e-01       2.380643795039e+02 
       2.328329254288e-01       2.227766000650e+02 
       2.407529110883e-01       2.078808897888e+02 
       2.489825674823e-01       1.940838582808e+02 
       2.575442965158e-01       1.818017869004e+02 
       2.664640206981e-01       1.703922578693e+02 
       2.757719540142e-01       1.593004501262e+02 
       2.855035924125e-01       1.485224076188e+02 
       2.957010046410e-01       1.385114571056e+02 
       3.064145405289e-01       1.291778095903e+02 
       3.177051299669e-01       1.203281233017e+02 
       3.296474346951e-01       1.118547740478e+02 
       3.423342593833e-01       1.038041938122e+02 
       3.558828701841e-01       9.619422890373e+01 
       3.704442872632e-01       8.892789305456e+01 
       3.862173696285e-01       8.193549885030e+01 
       4.034709205180e-01       7.524288243387e+01 
       4.225798170092e-01       6.876829271787e+01 
       4.440869398667e-01       6.246794941414e+01 
       4.688154546490e-01       5.628091677491e+01 
       4.980862650370e-01       5.012134720720e+01 
       5.341722742973e-01       4.389620571186e+01 
       5.813250330126e-01       3.746628762965e+01 
       6.482054520239e-01       3.065760200798e+01 
       7.527546090259e-01       2.344268307997e+01 
       9.209164804195e-01       1.656147717274e+01 
       1.156319164558e+00       1.142257801396e+01 
       1.455648145991e+00       8.015484955146e+00 
       1.832552103153e+00       5.727044993676e+00 
       2.307046410859e+00       4.143861330423e+00 
       2.904399352818e+00       3.015828390016e+00 
       3.656422151262e+00       2.191538863414e+00 
       4.603162762470e+00       1.578639635752e+00 
       5.795038576299e+00       1.119757665070e+00 
       7.295521326030e+00       7.778448484150e-01 
       9.184517189625e+00       5.271581714688e-01 
       1.156262208508e+01       3.479301805689e-01 
