# Matter power spectrum P(k) at redshift z=2
# for k=1.14708e-05 to 11.4824 h/Mpc,
# number of wavenumbers equal to 122
#    1:k (h/Mpc)              2:P (Mpc/h)^3        
       1.147077588384e-05       6.549851405442e+00 
       1.444085125316e-05       8.131318065136e+00 
       1.817995461054e-05       1.009462433968e+01 
       2.288720684448e-05       1.253195712210e+01 
       2.881328630150e-05       1.555775418107e+01 
       3.627377832226e-05       1.931406739871e+01 
       4.566598131168e-05       2.397721449439e+01 
       5.749006432779e-05       2.976602085640e+01 
       7.237570290794e-05       3.695202078104e+01 
       9.111561158727e-05       4.587206052442e+01 
       1.147077588384e-04       5.694382989747e+01 
       1.444085125316e-04       7.068490741486e+01 
       1.817995461054e-04       8.773596388270e+01 
       2.288720684448e-04       1.088886979423e+02 
       2.881328630150e-04       1.351188671811e+02 
       3.627377832226e-04       1.676241905250e+02 
       4.566598131168e-04       2.078657321946e+02 
       5.749006432779e-04       2.576093520885e+02 
       7.237570290794e-04       3.189609292398e+02 
       9.111561158727e-04       3.943861188971e+02 
       1.147077588384e-03       4.867039772012e+02 
       1.444085125316e-03       5.990420002010e+02 
       1.817995461054e-03       7.347159165825e+02 
       2.288720684448e-03       8.969676674150e+02 
       2.881328630150e-03       1.088496697850e+03 
       3.627377832226e-03       1.310737932083e+03 
       4.566598131168e-03       1.562906856932e+03 
       5.749006432779e-03       1.839422680444e+03 
       7.237570290794e-03       2.132815070118e+03 
       9.111561158727e-03       2.425928105963e+03 
       1.147077588384e-02       2.693597862360e+03 
       1.444085125316e-02       2.901368703659e+03 
       1.817995461048e-02       3.006550629989e+03 
       2.288720654171e-02       2.966361966418e+03 
       2.881308388996e-02       2.758000321295e+03 
       3.624857221951e-02       2.411264280739e+03 
       4.490397928039e-02       2.046928595015e+03 
       5.201054921294e-02       1.825930346989e+03 
       5.720196777919e-02       1.704756780061e+03 
       6.151364558328e-02       1.621656847914e+03 
       6.537790388845e-02       1.554868668821e+03 
       6.898990180322e-02       1.495099575392e+03 
       7.245394226418e-02       1.437677727174e+03 
       7.583300223494e-02       1.380151941674e+03 
       7.916866615402e-02       1.321364483708e+03 
       8.249036331715e-02       1.261079969757e+03 
       8.582012570626e-02       1.199633229855e+03 
       8.917524446158e-02       1.137853924854e+03 
       9.256984992433e-02       1.076848804054e+03 
       9.601590032527e-02       1.017857590039e+03 
       9.952382657126e-02       9.620922752950e+02 
       1.031029673353e-01       9.106090583595e+02 
       1.067618710400e-01       8.641658376239e+02 
       1.105085103696e-01       8.231322890829e+02 
       1.143504375246e-01       7.874541306238e+02 
       1.182948982481e-01       7.566053627465e+02 
       1.223489164773e-01       7.296431974734e+02 
       1.265193576423e-01       7.052802997259e+02 
       1.308129761826e-01       6.820364703922e+02 
       1.352364512656e-01       6.584291923301e+02 
       1.397964136412e-01       6.332394627909e+02 
       1.444994658768e-01       6.057392129792e+02 
       1.493521977474e-01       5.759012682475e+02 
       1.543611982545e-01       5.443998858643e+02 
       1.595330655392e-01       5.124978678417e+02 
       1.648744158278e-01       4.817357139121e+02 
       1.703918924641e-01       4.535569109144e+02 
       1.760921760285e-01       4.289374304918e+02 
       1.819819965140e-01       4.081487821534e+02 
       1.880681485069e-01       3.906365013899e+02 
       1.943575103068e-01       3.751902402929e+02 
       2.008570679103e-01       3.603012256566e+02 
       2.075739447809e-01       3.447090770587e+02 
       2.145154383286e-01       3.275922357464e+02 
       2.216890640398e-01       3.091538611273e+02 
       2.291026082356e-01       2.904748913472e+02 
       2.367641905000e-01       2.729606016627e+02 
       2.446823369293e-01       2.575420869454e+02 
       2.528660655178e-01       2.444062206254e+02 
       2.613249852355e-01       2.330249252157e+02 
       2.700694106891e-01       2.223992535127e+02 
       2.791104947212e-01       2.115301109230e+02 
       2.884603819237e-01       2.000681076690e+02 
       2.981323868696e-01       1.884512848240e+02 
       3.081412019676e-01       1.774606909654e+02 
       3.185031412885e-01       1.677072341350e+02 
       3.292364286400e-01       1.591571173656e+02 
       3.403615407243e-01       1.511884555690e+02 
       3.519016196523e-01       1.432569791531e+02 
       3.638829737602e-01       1.352487939606e+02 
       3.763356920822e-01       1.275159932625e+02 
       3.892944067614e-01       1.204374087332e+02 
       4.027992502808e-01       1.139834825954e+02 
       4.168970724840e-01       1.078399447440e+02 
       4.316430087511e-01       1.017787030534e+02 
       4.471025299505e-01       9.593091269421e+01 
       4.633541643680e-01       9.045219421911e+01 
       4.804931742667e-01       8.529700118377e+01 
       4.986366167841e-01       8.032713001886e+01 
       5.179304592174e-01       7.550352046501e+01 
       5.385598237458e-01       7.089839466246e+01 
       5.607641427952e-01       6.648978427241e+01 
       5.848602859736e-01       6.218901822005e+01 
       6.112791423001e-01       5.801289971179e+01 
       6.406259622043e-01       5.393056253730e+01 
       6.737849132391e-01       4.989105917873e+01 
       7.121110738044e-01       4.586262010717e+01 
       7.578078280623e-01       4.177517511263e+01 
       8.147283054137e-01       3.754212907293e+01 
       8.902130912340e-01       3.303152359852e+01 
       9.994220001695e-01       2.806931510022e+01 
       1.172992854236e+00       2.257979233803e+01 
       1.447479818078e+00       1.715599995600e+01 
       1.819877689162e+00       1.283453888258e+01 
       2.291049350568e+00       9.604415289198e+00 
       2.884260112237e+00       7.144475486129e+00 
       3.631068349459e+00       5.244828975166e+00 
       4.571244217095e+00       3.776750222321e+00 
       5.754855508418e+00       2.655487721314e+00 
       7.244933840751e+00       1.817531903367e+00 
       9.120831318889e+00       1.209027839463e+00 
       1.148244632404e+01       7.817082600127e-01 
