# Matter power spectrum P(k) at redshift z=1
# for k=9.95569e-06 to 12.5506 h/Mpc,
# number of wavenumbers equal to 123
#    1:k (h/Mpc)              2:P (Mpc/h)^3        
       9.955689398840e-06       2.352223747449e+01 
       1.253347037613e-05       2.916138053112e+01 
       1.577870435448e-05       3.615241559957e+01 
       1.986421187704e-05       4.481940794744e+01 
       2.500756111727e-05       5.556409425803e+01 
       3.148265417753e-05       6.888445249905e+01 
       3.963431337482e-05       8.539774394323e+01 
       4.989664428657e-05       1.058689947600e+02 
       6.281615345562e-05       1.312462022521e+02 
       7.908085185644e-05       1.627037877464e+02 
       9.955689398840e-05       2.016960828466e+02 
       1.253347037613e-04       2.500228425750e+02 
       1.577870435448e-04       3.099090085804e+02 
       1.986421187704e-04       3.841007294290e+02 
       2.500756111727e-04       4.759790476705e+02 
       3.148265417753e-04       5.896909484106e+02 
       3.963431337482e-04       7.302942540682e+02 
       4.989664428657e-04       9.039077246612e+02 
       6.281615345562e-04       1.117851365447e+03 
       7.908085185644e-04       1.380756002828e+03 
       9.955689398840e-04       1.702612496479e+03 
       1.253347037613e-03       2.094694894834e+03 
       1.577870435448e-03       2.569157173464e+03 
       1.986421187704e-03       3.138255189107e+03 
       2.500756111727e-03       3.812930858593e+03 
       3.148265417753e-03       4.600492422594e+03 
       3.963431337482e-03       5.501368495702e+03 
       4.989664428657e-03       6.504497309250e+03 
       6.281615345562e-03       7.581454613402e+03 
       7.908085185644e-03       8.679462104061e+03 
       9.955689398840e-03       9.714001317249e+03 
       1.253347037613e-02       1.056444739431e+04 
       1.577870435300e-02       1.107864905481e+04 
       1.986420846339e-02       1.110220840770e+04 
       2.500639219217e-02       1.055334701631e+04 
       3.139840762272e-02       9.541229212060e+03 
       3.813459180048e-02       8.529266849373e+03 
       4.309016224774e-02       7.923093617228e+03 
       4.689879009199e-02       7.530016784922e+03 
       5.017270542226e-02       7.226033539292e+03 
       5.316165778373e-02       6.963056770769e+03 
       5.598642339823e-02       6.718569071943e+03 
       5.871490386907e-02       6.480282269426e+03 
       6.138962522925e-02       6.242132805110e+03 
       6.403946246123e-02       6.001022946099e+03 
       6.668531265397e-02       5.756543061469e+03 
       6.934311424291e-02       5.510250756795e+03 
       7.202557624251e-02       5.264782624923e+03 
       7.474322786896e-02       5.023496529495e+03 
       7.750508624569e-02       4.790278598433e+03 
       8.031909780139e-02       4.568679194321e+03 
       8.319243947591e-02       4.361869054509e+03 
       8.613172972064e-02       4.171807064284e+03 
       8.914317951262e-02       3.999272637309e+03 
       9.223270230618e-02       3.843735275073e+03 
       9.540599514835e-02       3.702885200666e+03 
       9.866859908606e-02       3.573315960235e+03 
       1.020259444179e-01       3.450583625182e+03 
       1.054833846890e-01       3.329937521126e+03 
       1.090462222476e-01       3.206932471887e+03 
       1.127197274665e-01       3.078272371395e+03 
       1.165091532591e-01       2.942539739340e+03 
       1.204197462011e-01       2.800690660402e+03 
       1.244567553603e-01       2.655941447137e+03 
       1.286254398003e-01       2.512873294351e+03 
       1.329310756344e-01       2.376636693193e+03 
       1.373789634519e-01       2.251450700411e+03 
       1.419744369013e-01       2.139662965044e+03 
       1.467228731970e-01       2.041057193859e+03 
       1.516297062992e-01       1.952618927624e+03 
       1.567004435071e-01       1.869623486352e+03 
       1.619406862022e-01       1.787101069058e+03 
       1.673561554739e-01       1.701624345756e+03 
       1.729527233674e-01       1.611918690594e+03 
       1.787364505121e-01       1.520031389310e+03 
       1.847136309246e-01       1.430478148329e+03 
       1.908908448442e-01       1.347677366829e+03 
       1.972750205607e-01       1.273793408060e+03 
       2.038735063462e-01       1.207982041879e+03 
       2.106941538189e-01       1.147427521126e+03 
       2.177454143716e-01       1.088595058796e+03 
       2.250364507085e-01       1.028871321457e+03 
       2.325772660869e-01       9.684321844917e+02 
       2.403788545930e-01       9.096176384378e+02 
       2.484533767516e-01       8.549951300372e+02 
       2.568143660538e-01       8.056676982584e+02 
       2.654769736861e-01       7.604306143436e+02 
       2.744582610259e-01       7.168378392351e+02 
       2.837775525304e-01       6.736951345682e+02 
       2.934568658326e-01       6.314728743154e+02 
       3.035214416269e-01       5.916295151458e+02 
       3.140004040025e-01       5.548678635726e+02 
       3.249275933560e-01       5.203898086310e+02 
       3.363426305745e-01       4.870892115928e+02 
       3.482922955247e-01       4.547340285078e+02 
       3.608323393540e-01       4.240286266480e+02 
       3.740299059040e-01       3.951502178202e+02 
       3.879668249096e-01       3.675968502200e+02 
       4.027441799942e-01       3.410606228801e+02 
       4.184887864013e-01       3.155874611155e+02 
       4.353626090637e-01       2.912986011583e+02 
       4.535768511791e-01       2.679144022671e+02 
       4.734137313677e-01       2.452611046030e+02 
       4.952614498559e-01       2.233626592934e+02 
       5.196728850500e-01       2.019747754656e+02 
       5.474694222039e-01       1.809661086676e+02 
       5.799363097041e-01       1.601122283415e+02 
       6.192176157164e-01       1.391173162896e+02 
       6.691805271096e-01       1.175914954761e+02 
       7.374406015049e-01       9.503832968654e+01 
       8.399619637213e-01       7.115139306119e+01 
       1.006006156226e+00       4.729324163152e+01 
       1.255459616701e+00       2.833721010255e+01 
       1.580035378866e+00       1.646586761227e+01 
       1.989141986260e+00       9.462985753641e+00 
       2.504181386473e+00       5.388108427816e+00 
       3.152577583172e+00       3.042509016969e+00 
       3.968860032107e+00       1.705143781699e+00 
       4.996498750274e+00       9.490601634335e-01 
       6.290219246718e+00       5.249732535166e-01 
       7.918916855450e+00       2.887365586411e-01 
       9.969325663211e+00       1.579815202204e-01 
       1.255063741587e+01       8.602716749624e-02 
