# Matter power spectrum P(k) at redshift z=0
# for k=1.17917e-05 to 11.8038 h/Mpc,
# number of wavenumbers equal to 122
#    1:k (h/Mpc)              2:P (Mpc/h)^3        
       1.179168855938e-05       3.124968429599e+01 
       1.484485637536e-05       3.890227546248e+01 
       1.868856692538e-05       4.842884524056e+01 
       2.352751181237e-05       6.028821792341e+01 
       2.961938249688e-05       7.505158099058e+01 
       3.728859330698e-05       9.342986346698e+01 
       4.694355768421e-05       1.163078928091e+02 
       5.909843768868e-05       1.447867670344e+02 
       7.440052500361e-05       1.802364119088e+02 
       9.366471157787e-05       2.243606470051e+02 
       1.179168855938e-04       2.792774040750e+02 
       1.484485637536e-04       3.476171512168e+02 
       1.868856692538e-04       4.326426118197e+02 
       2.352751181237e-04       5.383924785460e+02 
       2.961938249688e-04       6.698504517958e+02 
       3.728859330698e-04       8.331379939481e+02 
       4.694355768421e-04       1.035724225262e+03 
       5.909843768868e-04       1.286639672360e+03 
       7.440052500361e-04       1.596673030047e+03 
       9.366471157787e-04       1.978517288580e+03 
       1.179168855938e-03       2.446790089537e+03 
       1.484485637536e-03       3.017763731033e+03 
       1.868856692538e-03       3.708602401264e+03 
       2.352751181237e-03       4.535857939333e+03 
       2.961938249688e-03       5.513205556599e+03 
       3.728859330698e-03       6.647603964427e+03 
       4.694355768421e-03       7.934312919249e+03 
       5.909843768868e-03       9.350261175496e+03 
       7.440052500361e-03       1.079385346670e+04 
       9.366471157787e-03       1.226318832835e+04 
       1.179168855938e-02       1.359495944924e+04 
       1.484485637536e-02       1.461630501550e+04 
       1.868856692534e-02       1.511794823664e+04 
       2.352751161911e-02       1.489497102945e+04 
       2.961923651157e-02       1.384193103985e+04 
       3.726851383829e-02       1.210503450732e+04 
       4.627911913518e-02       1.025728090736e+04 
       5.386890559533e-02       9.108936320788e+03 
       5.937449960799e-02       8.486849052397e+03 
       6.391575747078e-02       8.064016019673e+03 
       6.797097208894e-02       7.725888884273e+03 
       7.175342306663e-02       7.424753342196e+03 
       7.537602156287e-02       7.137123083995e+03 
       7.890648057124e-02       6.850814596505e+03 
       8.238928352327e-02       6.560103731780e+03 
       8.585578367415e-02       6.264069851526e+03 
       8.932937465872e-02       5.964448794975e+03 
       9.282836397474e-02       5.665320048931e+03 
       9.636767579070e-02       5.372003153318e+03 
       9.995991326745e-02       5.090465820851e+03 
       1.036160496653e-01       4.826162936303e+03 
       1.073458937440e-01       4.583984466466e+03 
       1.111584122430e-01       4.367048928749e+03 
       1.150619586379e-01       4.176710822699e+03 
       1.190644385259e-01       4.012187531221e+03 
       1.231734309896e-01       3.870402132446e+03 
       1.273962786435e-01       3.746381527875e+03 
       1.317401549420e-01       3.633699564608e+03 
       1.362121146977e-01       3.525042512626e+03 
       1.408191320542e-01       3.413486147239e+03 
       1.455681290355e-01       3.293364728920e+03 
       1.504659970516e-01       3.161782019642e+03 
       1.555196132389e-01       3.019250661530e+03 
       1.607358531890e-01       2.869732700084e+03 
       1.661216013997e-01       2.719848341048e+03 
       1.716837606419e-01       2.577011620130e+03 
       1.774292613465e-01       2.447839047252e+03 
       1.833650720589e-01       2.336397309872e+03 
       1.894982119757e-01       2.243039367117e+03 
       1.958357665510e-01       2.164329486363e+03 
       2.023849071519e-01       2.093902918275e+03 
       2.091529157263e-01       2.024498448206e+03 
       2.161472154458e-01       1.950133932275e+03 
       2.233754082870e-01       1.868295521138e+03 
       2.308453205328e-01       1.780749500483e+03 
       2.385650572071e-01       1.693152438489e+03 
       2.465430665292e-01       1.612204189432e+03 
       2.547882155757e-01       1.541685205455e+03 
       2.633098785120e-01       1.481446904621e+03 
       2.721180389968e-01       1.428099781037e+03 
       2.812234087054e-01       1.377061227364e+03 
       2.906375643956e-01       1.324313975089e+03 
       3.003731065708e-01       1.268888252803e+03 
       3.104438436494e-01       1.213456627202e+03 
       3.208650066687e-01       1.161602536767e+03 
       3.316535010425e-01       1.115326625497e+03 
       3.428282038558e-01       1.073957673530e+03 
       3.544103178057e-01       1.034505728683e+03 
       3.664237964161e-01       9.948978281026e+02 
       3.788958599280e-01       9.553135677940e+02 
       3.918576278215e-01       9.172875916324e+02 
       4.053449030306e-01       8.821965609748e+02 
       4.193991557729e-01       8.494444235447e+02 
       4.340687733317e-01       8.177545598846e+02 
       4.494106689964e-01       7.864583344505e+02 
       4.654923832561e-01       7.562847427707e+02 
       4.823948708101e-01       7.275842818385e+02 
       5.002162606433e-01       7.000193653476e+02 
       5.190770251767e-01       6.731027965710e+02 
       5.391272371932e-01       6.468023248431e+02 
       5.605570013187e-01       6.212462722100e+02 
       5.836118567202e-01       5.962292496639e+02 
       6.086162307037e-01       5.714372703361e+02 
       6.360104446275e-01       5.468328609788e+02 
       6.664115756151e-01       5.221479478043e+02 
       7.007185483481e-01       4.970650899694e+02 
       7.403043270960e-01       4.711911336960e+02 
       7.873919101497e-01       4.439111966869e+02 
       8.458486388640e-01       4.142735510767e+02 
       9.229994811940e-01       3.807041602296e+02 
       1.033911166514e+00       3.405623795785e+02 
       1.209326639623e+00       2.903452817246e+02 
       1.488497139015e+00       2.311846760754e+02 
       1.870820592999e+00       1.744890551748e+02 
       2.355165220041e+00       1.263933576580e+02 
       2.964977128331e+00       8.794834219227e+01 
       3.732685052132e+00       5.903785755508e+01 
       4.699172066353e+00       3.847114574896e+01 
       5.915907128725e+00       2.448657694450e+01 
       7.447685818166e+00       1.530617283875e+01 
       9.376080935548e+00       9.438063609018e+00 
       1.180378655280e+01       5.760911942611e+00 
