# Matter power spectrum P(k) at redshift z=1.5
# for k=1.06131e-05 to 10.6251 h/Mpc,
# number of wavenumbers equal to 122
#    1:k (h/Mpc)              2:P (Mpc/h)^3        
       1.061305119744e-05       9.178820319698e+00 
       1.336103984913e-05       1.147562524878e+01 
       1.682055259407e-05       1.434714625274e+01 
       2.117582110109e-05       1.793718017774e+01 
       2.665877929977e-05       2.242549969293e+01 
       3.356141470789e-05       2.803682383796e+01 
       4.225131783153e-05       3.505206080224e+01 
       5.319125769990e-05       4.382230702483e+01 
       6.696382600370e-05       5.478631125751e+01 
       8.430246222702e-05       6.849221132732e+01 
       1.061305119744e-04       8.562451933598e+01 
       1.336103984913e-04       1.070374760125e+02 
       1.682055259407e-04       1.337960225178e+02 
       2.117582110109e-04       1.672255876562e+02 
       2.665877929977e-04       2.089715965238e+02 
       3.356141470789e-04       2.610687255426e+02 
       4.225131783153e-04       3.260181248185e+02 
       5.319125769990e-04       4.068677282925e+02 
       6.696382600370e-04       5.072865247515e+02 
       8.430246222702e-04       6.316195166759e+02 
       1.061305119744e-03       7.849070691267e+02 
       1.336103984913e-03       9.728420759460e+02 
       1.682055259407e-03       1.201594022678e+03 
       2.117582110109e-03       1.477339962954e+03 
       2.665877929977e-03       1.805543920830e+03 
       3.356141470789e-03       2.189729331100e+03 
       4.225131783153e-03       2.629792522567e+03 
       5.319125769990e-03       3.119691198681e+03 
       6.696382600370e-03       3.644567121597e+03 
       8.430246222702e-03       4.177614117275e+03 
       1.061305119744e-02       4.676532884466e+03 
       1.336103984913e-02       5.082273971648e+03 
       1.682055259381e-02       5.321176661411e+03 
       2.117582017997e-02       5.318907764791e+03 
       2.665832671831e-02       5.034434628029e+03 
       3.351756565768e-02       4.514842500541e+03 
       4.120426372716e-02       3.965322768801e+03 
       4.715609265279e-02       3.628831618422e+03 
       5.159924453209e-02       3.423891186417e+03 
       5.535099794888e-02       3.271325778485e+03 
       5.874322083752e-02       3.142067886527e+03 
       6.193052983748e-02       3.023183766567e+03 
       6.499753469034e-02       2.908148147234e+03 
       6.799619698607e-02       2.793577578660e+03 
       7.096127244495e-02       2.677993170992e+03 
       7.391761188921e-02       2.561396841895e+03 
       7.688397906790e-02       2.444386869831e+03 
       7.987520748383e-02       2.328386064176e+03 
       8.290349529832e-02       2.215095339324e+03 
       8.597922176362e-02       2.106377251733e+03 
       8.911148299632e-02       2.003886695276e+03 
       9.230845537356e-02       1.909020267120e+03 
       9.557764883001e-02       1.822587333570e+03 
       9.892608740931e-02       1.744824295407e+03 
       1.023604403012e-01       1.675162355095e+03 
       1.058871182804e-01       1.612478698676e+03 
       1.095123454080e-01       1.554918072959e+03 
       1.132422126923e-01       1.500296825573e+03 
       1.170827183867e-01       1.446342748247e+03 
       1.210397982829e-01       1.391011353355e+03 
       1.251193484897e-01       1.332895612400e+03 
       1.293272426120e-01       1.271521700195e+03 
       1.336693448550e-01       1.207518688877e+03 
       1.381515203288e-01       1.142509977499e+03 
       1.427796436575e-01       1.078744899029e+03 
       1.475596068899e-01       1.018560933937e+03 
       1.524973276394e-01       9.637975828049e+02 
       1.575987583404e-01       9.152855808949e+02 
       1.628698974779e-01       8.726942081018e+02 
       1.683168036327e-01       8.345081393696e+02 
       1.739456131727e-01       7.984740721776e+02 
       1.797625624113e-01       7.623645666789e+02 
       1.857740150546e-01       7.247255014584e+02 
       1.919864957594e-01       6.853535644038e+02 
       1.984067306457e-01       6.453172985742e+02 
       2.050416956392e-01       6.066042589544e+02 
       2.118986735855e-01       5.711104237795e+02 
       2.189853211823e-01       5.396208388413e+02 
       2.263097469283e-01       5.115115484769e+02 
       2.338806015203e-01       4.853985466937e+02 
       2.417071824409e-01       4.599190922028e+02 
       2.497995549160e-01       4.341571846977e+02 
       2.581686920005e-01       4.082347986956e+02 
       2.668266373259e-01       3.832357999834e+02 
       2.757866950666e-01       3.601416262280e+02 
       2.850636530332e-01       3.392150009356e+02 
       2.946740465984e-01       3.199246296428e+02 
       3.046364735548e-01       3.012912494400e+02 
       3.149719732219e-01       2.829035713665e+02 
       3.257044875067e-01       2.650803812708e+02 
       3.368614276429e-01       2.483041180897e+02 
       3.484743787523e-01       2.328083835234e+02 
       3.605799862762e-01       2.182043564374e+02 
       3.732210854635e-01       2.041253702169e+02 
       3.864481601922e-01       1.905115502650e+02 
       4.003212548347e-01       1.776468489297e+02 
       4.149125198986e-01       1.655119237389e+02 
       4.303096610153e-01       1.539348171055e+02 
       4.466207027694e-01       1.428139952955e+02 
       4.639807119759e-01       1.321747828059e+02 
       4.825615199740e-01       1.220254983703e+02 
       5.025861764616e-01       1.122701380645e+02 
       5.243511319996e-01       1.028424278005e+02 
       5.482615596450e-01       9.373899563052e+01 
       5.748900717310e-01       8.487141209126e+01 
       6.050793946426e-01       7.618104944262e+01 
       6.401329524151e-01       6.757980295897e+01 
       6.821942035771e-01       5.896006979273e+01 
       7.350631958691e-01       5.016545101336e+01 
       8.060891000321e-01       4.100002266884e+01 
       9.105825165177e-01       3.129606805457e+01 
       1.078451394689e+00       2.138135146902e+01 
       1.338577505862e+00       1.302010962854e+01 
       1.683978615056e+00       7.605988040803e+00 
       2.119987786877e+00       4.392413842137e+00 
       2.668906459641e+00       2.514113108468e+00 
       3.359954163732e+00       1.427476822897e+00 
       4.229931679186e+00       8.046444054983e-01 
       5.325168481081e+00       4.505720643697e-01 
       6.703989922918e+00       2.507921618613e-01 
       8.439823274373e+00       1.388277304024e-01 
       1.062510799116e+01       7.646114686786e-02 
