# Matter power spectrum P(k) at redshift z=1
# for k=9.24619e-06 to 11.6537 h/Mpc,
# number of wavenumbers equal to 123
#    1:k (h/Mpc)              2:P (Mpc/h)^3        
       9.246187922916e-06       3.243369950629e+01 
       1.164026093838e-05       4.037066088332e+01 
       1.465422029525e-05       5.024980418446e+01 
       1.844857031971e-05       6.254639352481e+01 
       2.322537398676e-05       7.785185880276e+01 
       2.923901351036e-05       9.690222991150e+01 
       3.680973712398e-05       1.206133848390e+02 
       4.634071346684e-05       1.501247852283e+02 
       5.833950178408e-05       1.868536728234e+02 
       7.344508130739e-05       2.325620052902e+02 
       9.246187922916e-05       2.894387907855e+02 
       1.164026093838e-04       3.602006142886e+02 
       1.465422029525e-04       4.482130268280e+02 
       1.844857031971e-04       5.576344215992e+02 
       2.322537398676e-04       6.935815539710e+02 
       2.923901351036e-04       8.623106846880e+02 
       3.680973712398e-04       1.071399312106e+03 
       4.634071346684e-04       1.329900466808e+03 
       5.833950178408e-04       1.648427925289e+03 
       7.344508130739e-04       2.039123542230e+03 
       9.246187922916e-04       2.515450621459e+03 
       1.164026093838e-03       3.091683409120e+03 
       1.465422029525e-03       3.781724530288e+03 
       1.844857031971e-03       4.597029834265e+03 
       2.322537398676e-03       5.543527918438e+03 
       2.923901351036e-03       6.617407480370e+03 
       3.680973712398e-03       7.800079856935e+03 
       4.634071346684e-03       9.051909880890e+03 
       5.833950178408e-03       1.029644877395e+04 
       7.344508130739e-03       1.144944717542e+04 
       9.246187922916e-03       1.236714705896e+04 
       1.164026093838e-02       1.287836860286e+04 
       1.465422029524e-02       1.279159387657e+04 
       1.844857026964e-02       1.194579504210e+04 
       2.322532387652e-02       1.031990254099e+04 
       2.923034658039e-02       8.186376215465e+03 
       3.645845315151e-02       6.208990287156e+03 
       4.292896249229e-02       5.129451174044e+03 
       4.757047628860e-02       4.665649674543e+03 
       5.133619249901e-02       4.408518035756e+03 
       5.466963448052e-02       4.227822250561e+03 
       5.776325673262e-02       4.072853774336e+03 
       6.071671575996e-02       3.920098557485e+03 
       6.358883926322e-02       3.756838773213e+03 
       6.641781909206e-02       3.578058274293e+03 
       6.923032365686e-02       3.383191213364e+03 
       7.204609855597e-02       3.175069272733e+03 
       7.488049596139e-02       2.959380311925e+03 
       7.774596080552e-02       2.742737888215e+03 
       8.065295160321e-02       2.532686331523e+03 
       8.361053613543e-02       2.336274099057e+03 
       8.662679072540e-02       2.159413955875e+03 
       8.970907583748e-02       2.006410301783e+03 
       9.286423096337e-02       1.879412777619e+03 
       9.609871516497e-02       1.778452513903e+03 
       9.941871000818e-02       1.701251045595e+03 
       1.028301958304e-01       1.643697237196e+03 
       1.063390086988e-01       1.599704109212e+03 
       1.099508831430e-01       1.562185387633e+03 
       1.136714842725e-01       1.523279854483e+03 
       1.175064319232e-01       1.476182577885e+03 
       1.214613188358e-01       1.415864186195e+03 
       1.255417244408e-01       1.340823343713e+03 
       1.297532255418e-01       1.253428735118e+03 
       1.341014050013e-01       1.159417033709e+03 
       1.385918594101e-01       1.066504064675e+03 
       1.432302066446e-01       9.822962183913e+02 
       1.480220941695e-01       9.124545205466e+02 
       1.529732089071e-01       8.594041909132e+02 
       1.580892894830e-01       8.217658393650e+02 
       1.633761416386e-01       7.948958622359e+02 
       1.688396575957e-01       7.721150632408e+02 
       1.744858401532e-01       7.463226359384e+02 
       1.803208322976e-01       7.121060462371e+02 
       1.863509531187e-01       6.687490215021e+02 
       1.925827408494e-01       6.203095540465e+02 
       1.990230038987e-01       5.732255388769e+02 
       2.056788808275e-01       5.329198543207e+02 
       2.125579103481e-01       5.019404095623e+02 
       2.196681126129e-01       4.793915713156e+02 
       2.270180833269e-01       4.611138688340e+02 
       2.346171025834e-01       4.418235691544e+02 
       2.424752608169e-01       4.184782355499e+02 
       2.506036049293e-01       3.917202719381e+02 
       2.590143085198e-01       3.650191520940e+02 
       2.677208713058e-01       3.421953161308e+02 
       2.767383543550e-01       3.242984186293e+02 
       2.860836597861e-01       3.093323966710e+02 
       2.957758663309e-01       2.944020984352e+02 
       3.058366358490e-01       2.778480006298e+02 
       3.162907109579e-01       2.607453977448e+02 
       3.271665309759e-01       2.451719271639e+02 
       3.384970032768e-01       2.320075218201e+02 
       3.503204813210e-01       2.201218113245e+02 
       3.626820212170e-01       2.080808837587e+02 
       3.756350191705e-01       1.958712572129e+02 
       3.892433782611e-01       1.844331038115e+02 
       4.035844241525e-01       1.740919271457e+02 
       4.187529019183e-01       1.643115016664e+02 
       4.348665690620e-01       1.545604475030e+02 
       4.520742059276e-01       1.451855331269e+02 
       4.705673944168e-01       1.364377116789e+02 
       4.905983677071e-01       1.278833546277e+02 
       5.125080181418e-01       1.195170227644e+02 
       5.367716620129e-01       1.114303648303e+02 
       5.640774608373e-01       1.034134473406e+02 
       5.954685501973e-01       9.544835697902e+01 
       6.326181815053e-01       8.738083295542e+01 
       6.784042214704e-01       7.905817784473e+01 
       7.382069712277e-01       7.021899727650e+01 
       8.229819471927e-01       6.050276394085e+01 
       9.554346686057e-01       4.960861667975e+01 
       1.168553935485e+00       3.825894143500e+01 
       1.467182234096e+00       2.868913872565e+01 
       1.846979746111e+00       2.142158453370e+01 
       2.325209291009e+00       1.586352217604e+01 
       2.927265063873e+00       1.157612451952e+01 
       3.685208375967e+00       8.279937471298e+00 
       4.639402472262e+00       5.781850657176e+00 
       5.840661667871e+00       3.931498205640e+00 
       7.352957395375e+00       2.600045669386e+00 
       9.256824916877e+00       1.673202120745e+00 
       1.165365212039e+01       1.050245367859e+00 
