# Matter power spectrum P(k) at redshift z=0.5
# for k=7.87949e-06 to 12.501 h/Mpc,
# number of wavenumbers equal to 124
#    1:k (h/Mpc)              2:P (Mpc/h)^3        
       7.879490007966e-06       7.029977299167e+01 
       9.919690203007e-06       8.761193024428e+01 
       1.248815007369e-05       1.091871887087e+02 
       1.572164947407e-05       1.360753348375e+02 
       1.979238403823e-05       1.695843872434e+02 
       2.491713522571e-05       2.113441411046e+02 
       3.136881472476e-05       2.633851434965e+02 
       3.949099799486e-05       3.282366867641e+02 
       4.971622091284e-05       4.090484079695e+02 
       6.258901388555e-05       5.097405868705e+02 
       7.879490007966e-05       6.351891415044e+02 
       9.919690203007e-05       7.914514984263e+02 
       1.248815007369e-04       9.860392802829e+02 
       1.572164947407e-04       1.228241140154e+03 
       1.979238403823e-04       1.529493453938e+03 
       2.491713522571e-04       1.903785065677e+03 
       3.136881472476e-04       2.368063290360e+03 
       3.949099799486e-04       2.942583340596e+03 
       4.971622091284e-04       3.651120187494e+03 
       6.258901388555e-04       4.520946092310e+03 
       7.879490007966e-04       5.582416330189e+03 
       9.919690203007e-04       6.867627676942e+03 
       1.248815007369e-03       8.407874893161e+03 
       1.572164947407e-03       1.022889339128e+04 
       1.979238403823e-03       1.234370033230e+04 
       2.491713522571e-03       1.474318039125e+04 
       3.136881472476e-03       1.738437036117e+04 
       3.949099799486e-03       2.017514754017e+04 
       4.971622091284e-03       2.295789648687e+04 
       6.258901388555e-03       2.549943285936e+04 
       7.879490007966e-03       2.746625545259e+04 
       9.919690203007e-03       2.844182239675e+04 
       1.248815007367e-02       2.795155387445e+04 
       1.572164935498e-02       2.561671798543e+04 
       1.979229220062e-02       2.144774203395e+04 
       2.490428872226e-02       1.625766894456e+04 
       3.093721875151e-02       1.183090654523e+04 
       3.604134544012e-02       9.696402928912e+03 
       3.973987142615e-02       8.836378268727e+03 
       4.278696685680e-02       8.398292986424e+03 
       4.550623301982e-02       8.116819182386e+03 
       4.804167286482e-02       7.883889895179e+03 
       5.046939910993e-02       7.644311533777e+03 
       5.283500396141e-02       7.368883832678e+03 
       5.516841279379e-02       7.043552024139e+03 
       5.749070339207e-02       6.665837630425e+03 
       5.981759360946e-02       6.242640991438e+03 
       6.216137806475e-02       5.786679924629e+03 
       6.453207509734e-02       5.315843979665e+03 
       6.693814194916e-02       4.850606706771e+03 
       6.938693984196e-02       4.410369379034e+03 
       7.188504705855e-02       4.012328468086e+03 
       7.443847581791e-02       3.668925428636e+03 
       7.705282608377e-02       3.387892996814e+03 
       7.973339674367e-02       3.171266685772e+03 
       8.248526718292e-02       3.015665987702e+03 
       8.531335780336e-02       2.912752152862e+03 
       8.822247525679e-02       2.849449066558e+03 
       9.121734639397e-02       2.808329465154e+03 
       9.430264378285e-02       2.769847662649e+03 
       9.748300489447e-02       2.713743847489e+03 
       1.007630465537e-01       2.624299961131e+03 
       1.041473759184e-01       2.493126998302e+03 
       1.076405990279e-01       2.322144158696e+03 
       1.112473278165e-01       2.124048666987e+03 
       1.149721863923e-01       1.918623699450e+03 
       1.188198173218e-01       1.727489582584e+03 
       1.227948886222e-01       1.568492897445e+03 
       1.269021021403e-01       1.451508772074e+03 
       1.311462039822e-01       1.376851785593e+03 
       1.355319976470e-01       1.335818842754e+03 
       1.400643605118e-01       1.312449135386e+03 
       1.447482643132e-01       1.285058038257e+03 
       1.495888002683e-01       1.235983435399e+03 
       1.545912094956e-01       1.158737547454e+03 
       1.597609194119e-01       1.060197548870e+03 
       1.651035868337e-01       9.563841542084e+02 
       1.706251485775e-01       8.650622801318e+02 
       1.763318804696e-01       7.984719313660e+02 
       1.822304658378e-01       7.575505288875e+02 
       1.883280747858e-01       7.325065048737e+02 
       1.946324558693e-01       7.081460806495e+02 
       2.011520422155e-01       6.717122385252e+02 
       2.078960746971e-01       6.205432116369e+02 
       2.148747455201e-01       5.640683491481e+02 
       2.220993665805e-01       5.151298264946e+02 
       2.295825682552e-01       4.803279766803e+02 
       2.373385360490e-01       4.569428288460e+02 
       2.453832948657e-01       4.352399045460e+02 
       2.537350538611e-01       4.075114335184e+02 
       2.624146292081e-01       3.743370235048e+02 
       2.714459681868e-01       3.429646337683e+02 
       2.808568065873e-01       3.187624645095e+02 
       2.906795037080e-01       2.998470115637e+02 
       3.009521171489e-01       2.805794152622e+02 
       3.117198062088e-01       2.587040952026e+02 
       3.230366930117e-01       2.372508288892e+02 
       3.349683729413e-01       2.195172101114e+02 
       3.475953651041e-01       2.039156270262e+02 
       3.610179552248e-01       1.874281067723e+02 
       3.753631551613e-01       1.710976945654e+02 
       3.907949758132e-01       1.568294581414e+02 
       4.075300639666e-01       1.431010443184e+02 
       4.258623643105e-01       1.293257720156e+02 
       4.462036598683e-01       1.165706175323e+02 
       4.691535339448e-01       1.040280785028e+02 
       4.956272294300e-01       9.180623956893e+01 
       5.271055874450e-01       7.972440532719e+01 
       5.661625941489e-01       6.763119820411e+01 
       6.176687711226e-01       5.525759554615e+01 
       6.916352067373e-01       4.240005723430e+01 
       8.085184850168e-01       2.929808119503e+01 
       9.947183629495e-01       1.781648513646e+01 
       1.250134892195e+00       1.021014686211e+01 
       1.573785402976e+00       5.781191475566e+00 
       1.981278281012e+00       3.249785387046e+00 
       2.494281575719e+00       1.814670632220e+00 
       3.140114459843e+00       1.007289828522e+00 
       3.953169889438e+00       5.560607585719e-01 
       4.976746030954e+00       3.054120746054e-01 
       6.265352046413e+00       1.669678657383e-01 
       7.887610905066e+00       9.088657122315e-02 
       9.929913806733e+00       4.927288390625e-02 
       1.250102082822e+01       2.661150714149e-02 
