# Matter power spectrum P(k) at redshift z=0
# for k=1.0608e-05 to 10.6219 h/Mpc,
# number of wavenumbers equal to 122
#    1:k (h/Mpc)              2:P (Mpc/h)^3        
       1.060795538946e-05       4.019547720507e+01 
       1.335462460697e-05       5.034382860773e+01 
       1.681247628269e-05       6.305429740922e+01 
       2.116565362747e-05       7.897367246032e+01 
       2.664597920885e-05       9.891186292106e+01 
       3.354530034816e-05       1.238831488633e+02 
       4.223103105457e-05       1.551574004799e+02 
       5.316571816086e-05       1.943242726795e+02 
       6.693167362900e-05       2.433731233311e+02 
       8.426198478546e-05       3.047922722691e+02 
       1.060795538946e-04       3.816917816896e+02 
       1.335462460697e-04       4.779541207393e+02 
       1.681247628269e-04       5.984169418022e+02 
       2.116565362747e-04       7.490906215013e+02 
       2.664597920885e-04       9.374096264353e+02 
       3.354530034816e-04       1.172509601260e+03 
       4.223103105457e-04       1.465510603426e+03 
       5.316571816086e-04       1.829772572129e+03 
       6.693167362900e-04       2.281075461216e+03 
       8.426198478546e-04       2.837655767308e+03 
       1.060795538946e-03       3.519953202951e+03 
       1.335462460697e-03       4.349742644152e+03 
       1.681247628269e-03       5.348293640839e+03 
       2.116565362747e-03       6.533385489609e+03 
       2.664597920885e-03       7.914758424000e+03 
       3.354530034816e-03       9.487962069048e+03 
       4.223103105457e-03       1.122699406255e+04 
       5.316571816086e-03       1.307622510803e+04 
       6.693167362900e-03       1.494312683017e+04 
       8.426198478546e-03       1.669552940717e+04 
       1.060795538946e-02       1.816092549313e+04 
       1.335462460697e-02       1.913475095256e+04 
       1.681247628269e-02       1.940630824951e+04 
       2.116565360716e-02       1.879997838541e+04 
       2.664595282773e-02       1.726692404943e+04 
       3.353965409612e-02       1.499869240537e+04 
       4.195617274430e-02       1.253014303123e+04 
       4.992310279948e-02       1.075367972287e+04 
       5.562430117389e-02       9.762521862720e+03 
       6.017538614906e-02       9.081715427042e+03 
       6.416962278355e-02       8.534100390132e+03 
       6.785848712300e-02       8.054745754119e+03 
       7.136950103391e-02       7.613787133218e+03 
       7.477682795856e-02       7.198832413308e+03 
       7.812808572602e-02       6.803066899466e+03 
       8.145623707637e-02       6.425556508923e+03 
       8.478551488851e-02       6.066737779643e+03 
       8.813464724589e-02       5.728327984254e+03 
       9.151873742073e-02       5.412409171047e+03 
       9.495042127065e-02       5.120371677222e+03 
       9.844061205950e-02       4.852979014005e+03 
       1.019989975472e-01       4.609742250529e+03 
       1.056343818826e-01       4.388906263902e+03 
       1.093549266614e-01       4.187501321985e+03 
       1.131683243588e-01       4.001570955633e+03 
       1.170819251204e-01       3.826642026667e+03 
       1.211028305823e-01       3.658235594854e+03 
       1.252379638799e-01       3.492309369923e+03 
       1.294941221484e-01       3.326067654213e+03 
       1.338780159769e-01       3.158446089333e+03 
       1.383962990708e-01       2.989902177567e+03 
       1.430555905737e-01       2.822535950956e+03 
       1.478624919678e-01       2.659831930112e+03 
       1.528236001191e-01       2.505047067004e+03 
       1.579455177945e-01       2.361220777805e+03 
       1.632348628310e-01       2.229726635585e+03 
       1.686982770343e-01       2.110210525333e+03 
       1.743424358264e-01       2.000754896381e+03 
       1.801740596215e-01       1.898402339544e+03 
       1.861999278851e-01       1.799998880935e+03 
       1.924268968177e-01       1.703009359377e+03 
       1.988619215909e-01       1.606719934242e+03 
       2.055120840593e-01       1.511950821500e+03 
       2.123846268724e-01       1.420168280640e+03 
       2.194869949192e-01       1.333741380108e+03 
       2.268268850713e-01       1.254257947970e+03 
       2.344123052389e-01       1.181071412776e+03 
       2.422516438515e-01       1.112939605999e+03 
       2.503537510143e-01       1.048243925501e+03 
       2.587280328072e-01       9.855801682974e+02 
       2.673845604899e-01       9.250294766714e+02 
       2.763341967981e-01       8.676266927213e+02 
       2.855887420725e-01       8.135585245964e+02 
       2.951611037221e-01       7.627590973846e+02 
       3.050654935141e-01       7.153752126748e+02 
       3.153176585072e-01       6.707720014698e+02 
       3.259351531884e-01       6.281929203043e+02 
       3.369376626940e-01       5.878558737121e+02 
       3.483473901078e-01       5.496954756757e+02 
       3.601895250275e-01       5.137468442842e+02 
       3.724928163440e-01       4.799969901194e+02 
       3.852902801375e-01       4.480082028209e+02 
       3.986200847838e-01       4.178536356505e+02 
       4.125266713270e-01       3.891932876840e+02 
       4.270621903350e-01       3.621923462888e+02 
       4.422883706714e-01       3.366607027078e+02 
       4.582789871744e-01       3.125087517568e+02 
       4.751231736077e-01       2.895328047828e+02 
       4.929299524039e-01       2.678283316631e+02 
       5.118345552924e-01       2.471741806865e+02 
       5.320074465619e-01       2.275087660857e+02 
       5.536675423030e-01       2.087870215743e+02 
       5.771021584958e-01       1.908702629021e+02 
       6.026981582368e-01       1.736687035667e+02 
       6.309925552461e-01       1.570771737152e+02 
       6.627586438074e-01       1.409795741181e+02 
       6.991608615918e-01       1.252286798886e+02 
       7.420518045910e-01       1.096570950670e+02 
       7.945859477528e-01       9.404398635769e+01 
       8.625924047014e-01       7.810555357081e+01 
       9.578215280613e-01       6.149609972667e+01 
       1.104824674046e+00       4.421643421903e+01 
       1.342751869424e+00       2.799411065278e+01 
       1.683611028467e+00       1.633190939446e+01 
       2.119343194404e+00       9.356854812728e+00 
       2.668093819021e+00       5.317172868032e+00 
       3.358931108707e+00       2.999935133470e+00 
       4.228643729217e+00       1.681517510290e+00 
       5.323547048136e+00       9.369483006230e-01 
       6.701948659780e+00       5.192388377475e-01 
       8.437253476337e+00       2.863308590070e-01 
       1.062187280711e+01       1.571666852388e-01 
