# Matter power spectrum P(k) at redshift z=1.5
# for k=8.9955e-06 to 11.3362 h/Mpc,
# number of wavenumbers equal to 123
#    1:k (h/Mpc)              2:P (Mpc/h)^3        
       8.995495213476e-06       2.279075530943e+01 
       1.132465751592e-05       2.830140041348e+01 
       1.425689912666e-05       3.514445329272e+01 
       1.794837260393e-05       4.364204975695e+01 
       2.259566237144e-05       5.419414548027e+01 
       2.844625355573e-05       6.729736513008e+01 
       3.581171147165e-05       8.356823215803e+01 
       4.508427361150e-05       1.037720356942e+02 
       5.675773772179e-05       1.288585092290e+02 
       7.145375833391e-05       1.600058305272e+02 
       8.995495213476e-05       1.986747141939e+02 
       1.132465751592e-04       2.466744867679e+02 
       1.425689912666e-04       3.062430147894e+02 
       1.794837260393e-04       3.801418826746e+02 
       2.259566237144e-04       4.717668679080e+02 
       2.844625355573e-04       5.852708495897e+02 
       3.581171147165e-04       7.256909364011e+02 
       4.508427361150e-04       8.990633314698e+02 
       5.675773772179e-04       1.112499550183e+03 
       7.145375833391e-04       1.374190736202e+03 
       8.995495213476e-04       1.693305062168e+03 
       1.132465751592e-03       2.079718215140e+03 
       1.425689912666e-03       2.543348766657e+03 
       1.794837260393e-03       3.093011529963e+03 
       2.259566237144e-03       3.734382225940e+03 
       2.844625355573e-03       4.467382906228e+03 
       3.581171147165e-03       5.282734768926e+03 
       4.508427361150e-03       6.153925135861e+03 
       5.675773772179e-03       7.045220066977e+03 
       7.145375833391e-03       7.889435346478e+03 
       8.995495213476e-03       8.593939850142e+03 
       1.132465751592e-02       9.038875566351e+03 
       1.425689912661e-02       9.085977521803e+03 
       1.794837235044e-02       8.614512361018e+03 
       2.259549572385e-02       7.599794974210e+03 
       2.842578360557e-02       6.224140886967e+03 
       3.520062870831e-02       4.965644702635e+03 
       4.074401006300e-02       4.297347458199e+03 
       4.479776737750e-02       3.971563706674e+03 
       4.816771981686e-02       3.767744403011e+03 
       5.118947213375e-02       3.612783650390e+03 
       5.401478213457e-02       3.476074953147e+03 
       5.672486261121e-02       3.342184898895e+03 
       5.936879476604e-02       3.203196167924e+03 
       6.197901036173e-02       3.055556997489e+03 
       6.457847422210e-02       2.898773448563e+03 
       6.718438673997e-02       2.734598959030e+03 
       6.981025245352e-02       2.566419153767e+03 
       7.246711104244e-02       2.398668161628e+03 
       7.516430792416e-02       2.236180465564e+03 
       7.790999697910e-02       2.083628731871e+03 
       8.071147987556e-02       1.944995876535e+03 
       8.357544163998e-02       1.823263152202e+03 
       8.650811802385e-02       1.719928087212e+03 
       8.951541665616e-02       1.634903469035e+03 
       9.260300603215e-02       1.566663456845e+03 
       9.577638158394e-02       1.512176885123e+03 
       9.904091508710e-02       1.467038817991e+03 
       1.024018917498e-01       1.426139031711e+03 
       1.058645380925e-01       1.384033154899e+03 
       1.094340429102e-01       1.335970136711e+03 
       1.131155730671e-01       1.278790775773e+03 
       1.169142855122e-01       1.211730826011e+03 
       1.208353366652e-01       1.136715594042e+03 
       1.248838901638e-01       1.057993050288e+03 
       1.290651238618e-01       9.810179227758e+02 
       1.333842369007e-01       9.112043735783e+02 
       1.378464576407e-01       8.524078577747e+02 
       1.424570532073e-01       8.061512347355e+02 
       1.472213413955e-01       7.711700062395e+02 
       1.521447056644e-01       7.437160354748e+02 
       1.572326139439e-01       7.188286791961e+02 
       1.624906419762e-01       6.912767348530e+02 
       1.679245019147e-01       6.575004615101e+02 
       1.735400769169e-01       6.174980620077e+02 
       1.793434624965e-01       5.746629844062e+02 
       1.853410154505e-01       5.337911086462e+02 
       1.915394112639e-01       4.987033785506e+02 
       1.979457110217e-01       4.709720883649e+02 
       2.045674390481e-01       4.495109108986e+02 
       2.114126727555e-01       4.308469746817e+02 
       2.184901465507e-01       4.110904886816e+02 
       2.258093721313e-01       3.883471992832e+02 
       2.333807781573e-01       3.634710210706e+02 
       2.412158731434e-01       3.393471217430e+02 
       2.493274365541e-01       3.187248663854e+02 
       2.577297445928e-01       3.019853195114e+02 
       2.664388391858e-01       2.873377722916e+02 
       2.754728513595e-01       2.725210643384e+02 
       2.848523938747e-01       2.565476897102e+02 
       2.946010430149e-01       2.405434973877e+02 
       3.047459364298e-01       2.260927554391e+02 
       3.153185238299e-01       2.136478755248e+02 
       3.263555215295e-01       2.020937848963e+02 
       3.379001425649e-01       1.904201493229e+02 
       3.500037049488e-01       1.787836685450e+02 
       3.627277674288e-01       1.679859977031e+02 
       3.761470147665e-01       1.581297001673e+02 
       3.903532301304e-01       1.486820180884e+02 
       4.054608811529e-01       1.393301348555e+02 
       4.216151646875e-01       1.304285476326e+02 
       4.390039108171e-01       1.220564598469e+02 
       4.578757537428e-01       1.138465020974e+02 
       4.785688846265e-01       1.058717097268e+02 
       5.015584986070e-01       9.814684544954e+01 
       5.275390469698e-01       9.049166836359e+01 
       5.575753615681e-01       8.289788012440e+01 
       5.933999117674e-01       7.520593836313e+01 
       6.380445209754e-01       6.727439138168e+01 
       6.972897783650e-01       5.885760324066e+01 
       7.830801656828e-01       4.965122106393e+01 
       9.195197250467e-01       3.955411942736e+01 
       1.135081494730e+00       2.971551920306e+01 
       1.427166889585e+00       2.201194169451e+01 
       1.796666020950e+00       1.635406294372e+01 
       2.261868410916e+00       1.211568766843e+01 
       2.847523620593e+00       8.886019199972e+00 
       3.584819846648e+00       6.411445554549e+00 
       4.513020801650e+00       4.528028052833e+00 
       5.681556571152e+00       3.119210773576e+00 
       7.152655945970e+00       2.091678159165e+00 
       9.004660332202e+00       1.364599320410e+00 
       1.133619571678e+01       8.669785188305e-01 
