# Matter power spectrum P(k) at redshift z=0
# for k=9.7547e-06 to 12.2954 h/Mpc,
# number of wavenumbers equal to 123
#    1:k (h/Mpc)              2:P (Mpc/h)^3        
       9.754703904153e-06       5.089777165679e+01 
       1.228044462947e-05       6.391580256286e+01 
       1.546016381217e-05       8.026336592653e+01 
       1.946319309364e-05       1.007920020346e+02 
       2.450270838023e-05       1.265709271601e+02 
       3.084708223766e-05       1.589427052839e+02 
       3.883417570869e-05       1.995929998844e+02 
       4.888933064575e-05       2.506379951055e+02 
       6.154802071555e-05       3.147339679580e+02 
       7.748436732444e-05       3.952142300354e+02 
       9.754703904153e-05       4.962600162284e+02 
       1.228044462947e-04       6.231128112731e+02 
       1.546016381217e-04       7.823366650323e+02 
       1.946319309364e-04       9.821392774284e+02 
       2.450270838023e-04       1.232759551822e+03 
       3.084708223766e-04       1.546925788169e+03 
       3.883417570869e-04       1.940381581492e+03 
       4.888933064575e-04       2.432465726652e+03 
       6.154802071555e-04       3.046718657999e+03 
       7.748436732444e-04       3.811464345253e+03 
       9.754703904153e-04       4.760246166261e+03 
       1.228044462947e-03       5.931551837887e+03 
       1.546016381217e-03       7.368544198294e+03 
       1.946319309364e-03       9.116568494907e+03 
       2.450270838023e-03       1.121889735487e+04 
       3.084708223766e-03       1.370975156463e+04 
       3.883417570869e-03       1.660355702596e+04 
       4.888933064575e-03       1.977451893660e+04 
       6.154802071555e-03       2.330064602483e+04 
       7.748436732444e-03       2.694474718237e+04 
       9.754703904153e-03       3.041789978785e+04 
       1.228044462947e-02       3.328922173990e+04 
       1.546016381174e-02       3.498734082379e+04 
       1.946319176990e-02       3.491068888978e+04 
       2.450212966688e-02       3.271120911085e+04 
       3.079611508353e-02       2.878484112217e+04 
       3.772503697943e-02       2.488319230545e+04 
       4.298901904345e-02       2.272129263203e+04 
       4.695490804950e-02       2.152161727677e+04 
       5.032368148102e-02       2.070796675685e+04 
       5.337941171962e-02       2.006469725340e+04 
       5.625605515725e-02       1.949093518959e+04 
       5.902756561071e-02       1.893037398300e+04 
       6.173965125924e-02       1.834935808259e+04 
       6.442303437217e-02       1.772991465859e+04 
       6.709976782298e-02       1.706560761288e+04 
       6.978655704278e-02       1.635826998189e+04 
       7.249664507528e-02       1.561946113587e+04 
       7.524094833733e-02       1.486525058270e+04 
       7.802877477752e-02       1.411512009405e+04 
       8.086829627712e-02       1.339161440666e+04 
       8.376686969147e-02       1.271527024722e+04 
       8.673126098641e-02       1.210414627134e+04 
       8.976780521420e-02       1.157082772635e+04 
       9.288252273840e-02       1.112095421694e+04 
       9.608120483875e-02       1.075286200032e+04 
       9.936947739151e-02       1.045678681309e+04 
       1.027528485430e-01       1.021496445947e+04 
       1.062367445155e-01       1.000327169014e+04 
       1.098265365238e-01       9.794065681503e+03 
       1.135275610173e-01       9.559476483058e+03 
       1.173451349508e-01       9.277369616252e+03 
       1.212845674487e-01       8.936471007161e+03 
       1.253511690045e-01       8.540494373782e+03 
       1.295502592065e-01       8.108221730014e+03 
       1.338871738883e-01       7.669270546762e+03 
       1.383672725411e-01       7.256984077958e+03 
       1.429959467877e-01       6.900367132278e+03 
       1.477786306940e-01       6.615411761947e+03 
       1.527208136797e-01       6.401757845510e+03 
       1.578280567786e-01       6.242791010865e+03 
       1.631060129925e-01       6.108691802409e+03 
       1.685604524825e-01       5.961355479379e+03 
       1.741972933421e-01       5.771675945740e+03 
       1.800226387178e-01       5.532652155538e+03 
       1.860428210731e-01       5.261044299067e+03 
       1.922644544528e-01       4.989079843164e+03 
       1.986944957026e-01       4.748894832919e+03 
       2.053403157424e-01       4.560152005073e+03 
       2.122097822017e-01       4.420109726034e+03 
       2.193113550217e-01       4.304661436436e+03 
       2.266541970228e-01       4.183336772379e+03 
       2.342483019786e-01       4.034768614368e+03 
       2.421046434469e-01       3.859913509402e+03 
       2.502353485542e-01       3.682647207844e+03 
       2.586539021774e-01       3.528109977176e+03 
       2.673753886222e-01       3.405054325317e+03 
       2.764167801072e-01       3.301941935304e+03 
       2.857972843390e-01       3.196741307106e+03 
       2.955387675098e-01       3.077593295818e+03 
       3.056662746286e-01       2.951541807058e+03 
       3.162086768820e-01       2.835046598872e+03 
       3.271994867626e-01       2.735655633937e+03 
       3.386778975980e-01       2.644659541751e+03 
       3.506901274273e-01       2.550350824177e+03 
       3.632911819882e-01       2.452260634846e+03 
       3.765472046957e-01       2.358938294408e+03 
       3.905386643783e-01       2.274001169940e+03 
       4.053647641748e-01       2.191400093076e+03 
       4.211496732855e-01       2.106924862207e+03 
       4.380515539172e-01       2.024735652347e+03 
       4.562760076486e-01       1.946215465182e+03 
       4.760967583998e-01       1.867270543846e+03 
       4.978886729551e-01       1.788317794976e+03 
       5.221828218417e-01       1.709777745102e+03 
       5.497631114871e-01       1.629273047023e+03 
       5.818464202447e-01       1.546301596239e+03 
       6.204429158750e-01       1.458227570310e+03 
       6.691357676671e-01       1.361833892685e+03 
       7.348951425334e-01       1.251130344907e+03 
       8.322796588113e-01       1.115984304143e+03 
       9.892387832561e-01       9.440086254773e+02 
       1.230219001326e+00       7.449593015148e+02 
       1.547904103272e+00       5.565035938462e+02 
       1.948685710655e+00       3.967486235965e+02 
       2.453249939135e+00       2.715539337598e+02 
       3.088458689853e+00       1.798491865794e+02 
       3.888139127933e+00       1.161342641823e+02 
       4.894877152746e+00       7.358612495657e+01 
       6.162285235203e+00       4.598438937606e+01 
       7.757857477321e+00       2.844840484476e+01 
       9.766563919276e+00       1.747233939868e+01 
       1.229537550389e+01       1.067494724556e+01 
