# Matter power spectrum P(k) at redshift z=0
# for k=1.02093e-05 to 10.2234 h/Mpc,
# number of wavenumbers equal to 122
#    1:k (h/Mpc)              2:P (Mpc/h)^3        
       1.020932608477e-05       7.757046689367e+01 
       1.285278004541e-05       9.620678227121e+01 
       1.618069141137e-05       1.193204589945e+02 
       2.037028359817e-05       1.479870449636e+02 
       2.564466766719e-05       1.835404374451e+02 
       3.228472380324e-05       2.276347951653e+02 
       4.064405920865e-05       2.823213732417e+02 
       5.116783897624e-05       3.501434544747e+02 
       6.441649275378e-05       4.342539270135e+02 
       8.109555966639e-05       5.385603123156e+02 
       1.020932608477e-04       6.679033928914e+02 
       1.285278004541e-04       8.282761092057e+02 
       1.618069141137e-04       1.027090210582e+03 
       2.037028359817e-04       1.273497595531e+03 
       2.564466766719e-04       1.578771605251e+03 
       3.228472380324e-04       1.956748930673e+03 
       4.064405920866e-04       2.424324684744e+03 
       5.116783897624e-04       3.001981658651e+03 
       6.441649275378e-04       3.714320578227e+03 
       8.109555966639e-04       4.590533467922e+03 
       1.020932608477e-03       5.664686737983e+03 
       1.285278004541e-03       6.975516781168e+03 
       1.618069141137e-03       8.565015084017e+03 
       2.037028359817e-03       1.047675336965e+04 
       2.564466766719e-03       1.275082650413e+04 
       3.228472380324e-03       1.541672138710e+04 
       4.064405920866e-03       1.848259153412e+04 
       5.116783897624e-03       2.177623627723e+04 
       6.441649275378e-03       2.543106944826e+04 
       8.109555966639e-03       2.917859535609e+04 
       1.020932608477e-02       3.273685804764e+04 
       1.285278004541e-02       3.570131216749e+04 
       1.618069140978e-02       3.756039283959e+04 
       2.037027997882e-02       3.778933951619e+04 
       2.564343922001e-02       3.610930035035e+04 
       3.219683038482e-02       3.288455707790e+04 
       3.909102670032e-02       2.968433527135e+04 
       4.415802721356e-02       2.783373498644e+04 
       4.805513143586e-02       2.668680460501e+04 
       5.140649661330e-02       2.583465181622e+04 
       5.446685502064e-02       2.511538193824e+04 
       5.735950435687e-02       2.445150205750e+04 
       6.015380899292e-02       2.379618507010e+04 
       6.289323172113e-02       2.312687648016e+04 
       6.560729438660e-02       2.243018933090e+04 
       6.831736854385e-02       2.169970079281e+04 
       7.103975854801e-02       2.094243713864e+04 
       7.378746794800e-02       2.016685293592e+04 
       7.657127195244e-02       1.938846382118e+04 
       7.940039981529e-02       1.862353629177e+04 
       8.228298601963e-02       1.789121102238e+04 
       8.522637820683e-02       1.720775989234e+04 
       8.823735291329e-02       1.658690918416e+04 
       9.132226998953e-02       1.603687994165e+04 
       9.448718503982e-02       1.555935663985e+04 
       9.773793237787e-02       1.514820157759e+04 
       1.010801868069e-01       1.479124290933e+04 
       1.045195099007e-01       1.446845806839e+04 
       1.080613847724e-01       1.415538549819e+04 
       1.117112422126e-01       1.382738095599e+04 
       1.154744803483e-01       1.346227748576e+04 
       1.193564794902e-01       1.304555712662e+04 
       1.233626135089e-01       1.257667663564e+04 
       1.274982588703e-01       1.206794106854e+04 
       1.317688023160e-01       1.154334531658e+04 
       1.361796480891e-01       1.103271888601e+04 
       1.407362255435e-01       1.056553320073e+04 
       1.454439979446e-01       1.016125472924e+04 
       1.503084732428e-01       9.825465851482e+03 
       1.553352175890e-01       9.546667943774e+03 
       1.605298723507e-01       9.298468933911e+03 
       1.658981753825e-01       9.049710422909e+03 
       1.714459873009e-01       8.771501957506e+03 
       1.771793235226e-01       8.448383243088e+03 
       1.831043928412e-01       8.087751077062e+03 
       1.892276433577e-01       7.718891311223e+03 
       1.955558166427e-01       7.374291300753e+03 
       2.020960111150e-01       7.074664082677e+03 
       2.088557557748e-01       6.822283830528e+03 
       2.158430956555e-01       6.602070699748e+03 
       2.230666906652e-01       6.387021223808e+03 
       2.305359299165e-01       6.154430591220e+03 
       2.382610642055e-01       5.900359544957e+03 
       2.462533600555e-01       5.639814157443e+03 
       2.545252797350e-01       5.394409389110e+03 
       2.630906929776e-01       5.178548663765e+03 
       2.719651278744e-01       4.986507881758e+03 
       2.811660707486e-01       4.800898905335e+03 
       2.907133279669e-01       4.609351083906e+03 
       3.006294669333e-01       4.412452647585e+03 
       3.109403594311e-01       4.222729609155e+03 
       3.216758587691e-01       4.048274209856e+03 
       3.328706539525e-01       3.886178327205e+03 
       3.445653611043e-01       3.727083419445e+03 
       3.568079373409e-01       3.567898993911e+03 
       3.696555397430e-01       3.413519865998e+03 
       3.831770093418e-01       3.267670224567e+03 
       3.974562497443e-01       3.127592853849e+03 
       4.125969141264e-01       2.990226182553e+03 
       4.287290525143e-01       2.855930335343e+03 
       4.460187776921e-01       2.726400202274e+03 
       4.646827267939e-01       2.600054438838e+03 
       4.850104191053e-01       2.475449493180e+03 
       5.074001621505e-01       2.352972117686e+03 
       5.324193410296e-01       2.231117633348e+03 
       5.609110957942e-01       2.108578040430e+03 
       5.941951068335e-01       1.983521926438e+03 
       6.344736881077e-01       1.852905783268e+03 
       6.857208204487e-01       1.711843152696e+03 
       7.557658539584e-01       1.551819185648e+03 
       8.610223260191e-01       1.358105876447e+03 
       1.031516588260e+00       1.114553883544e+03 
       1.287441072124e+00       8.439901457131e+02 
       1.620295674882e+00       6.024899854926e+02 
       2.039826716156e+00       4.113730177891e+02 
       2.567989681038e+00       2.714177465744e+02 
       3.232907466683e+00       1.746181365994e+02 
       4.069989363786e+00       1.103377129158e+02 
       5.123813035802e+00       6.884570923769e+01 
       6.450498436053e+00       4.258094128311e+01 
       8.120696399886e+00       2.617588298480e+01 
       1.022335105928e+01       1.602271530693e+01 
