# Matter power spectrum P(k) at redshift z=2
# for k=1.13553e-05 to 11.367 h/Mpc,
# number of wavenumbers equal to 122
#    1:k (h/Mpc)              2:P (Mpc/h)^3        
       1.135527312376e-05       8.392768309706e+00 
       1.429544189337e-05       1.044082061557e+01 
       1.799689507239e-05       1.298863997642e+01 
       2.265674854002e-05       1.615817021155e+01 
       2.852315648566e-05       2.010109877610e+01 
       3.590852652438e-05       2.500610326413e+01 
       4.520615654163e-05       3.110785262843e+01 
       5.691117923981e-05       3.869818075985e+01 
       7.164692976016e-05       4.813993784989e+01 
       9.019814055210e-05       5.988412694406e+01 
       1.135527312376e-04       7.449103850068e+01 
       1.429544189337e-04       9.265617611410e+01 
       1.799689507239e-04       1.152418002153e+02 
       2.265674854002e-04       1.433147989602e+02 
       2.852315648566e-04       1.781911764343e+02 
       3.590852652438e-04       2.214864702781e+02 
       4.520615654163e-04       2.751694687479e+02 
       5.691117923981e-04       3.416133197818e+02 
       7.164692976016e-04       4.236335515883e+02 
       9.019814055210e-04       5.244981315816e+02 
       1.135527312376e-03       6.478933355020e+02 
       1.429544189337e-03       7.978282693987e+02 
       1.799689507239e-03       9.784349150922e+02 
       2.265674854002e-03       1.193548538746e+03 
       2.852315648566e-03       1.445971500993e+03 
       3.590852652438e-03       1.736485054042e+03 
       4.520615654163e-03       2.062561916538e+03 
       5.691117923981e-03       2.416790874419e+03 
       7.164692976016e-03       2.782032279839e+03 
       9.019814055210e-03       3.141440179821e+03 
       1.135527312376e-02       3.461642781564e+03 
       1.429544189337e-02       3.703450275613e+03 
       1.799689507236e-02       3.822392774438e+03 
       2.265674837380e-02       3.777807524256e+03 
       2.852302724659e-02       3.550967418597e+03 
       3.589032783041e-02       3.170949955236e+03 
       4.459109068254e-02       2.745914452799e+03 
       5.196516456974e-02       2.453339401638e+03 
       5.730631766181e-02       2.276632542472e+03 
       6.170466195610e-02       2.146479772563e+03 
       6.562882920645e-02       2.037878122727e+03 
       6.928719251993e-02       1.940660498826e+03 
       7.278981735840e-02       1.850027723342e+03 
       7.620260393195e-02       1.763645224815e+03 
       7.956879239577e-02       1.680471313797e+03 
       8.291883048203e-02       1.600213320933e+03 
       8.627541820327e-02       1.523017595247e+03 
       8.965630830550e-02       1.449263483451e+03 
       9.307596434921e-02       1.379431646662e+03 
       9.654659439672e-02       1.313911263070e+03 
       1.000788231011e-01       1.252979170270e+03 
       1.036821440822e-01       1.196707191905e+03 
       1.073652332586e-01       1.144893530854e+03 
       1.111361710426e-01       1.097106659839e+03 
       1.150026029406e-01       1.052656174969e+03 
       1.189718573813e-01       1.010715017144e+03 
       1.230510331281e-01       9.703757509399e+02 
       1.272470646116e-01       9.308075521008e+02 
       1.315667709630e-01       8.913529496383e+02 
       1.360168928707e-01       8.516595102434e+02 
       1.406041202910e-01       8.117177091845e+02 
       1.453351133191e-01       7.718797844336e+02 
       1.502165180456e-01       7.327681091221e+02 
       1.552549788998e-01       6.951368110772e+02 
       1.604571487744e-01       6.596594569461e+02 
       1.658296980853e-01       6.267835464822e+02 
       1.713793238349e-01       5.965895554831e+02 
       1.771127596925e-01       5.687626248223e+02 
       1.830367880707e-01       5.427215407400e+02 
       1.891582551557e-01       5.177616073359e+02 
       1.954840898349e-01       4.932855995124e+02 
       2.020213274547e-01       4.689922187310e+02 
       2.087771393382e-01       4.449661887564e+02 
       2.157588689942e-01       4.214909781080e+02 
       2.229740759645e-01       3.991710891032e+02 
       2.304305882904e-01       3.783749981381e+02 
       2.381365646431e-01       3.591355663325e+02 
       2.461005672690e-01       3.412267071665e+02 
       2.543316470590e-01       3.242254394570e+02 
       2.628394422877e-01       3.077606715590e+02 
       2.716342929001e-01       2.917959622643e+02 
       2.807273726758e-01       2.765049630326e+02 
       2.901308422146e-01       2.619775566754e+02 
       2.998580265058e-01       2.482828038812e+02 
       3.099236219223e-01       2.354644032153e+02 
       3.203439389125e-01       2.233490080419e+02 
       3.311371885581e-01       2.117678336364e+02 
       3.423238236859e-01       2.007093002342e+02 
       3.539269486111e-01       1.901625416500e+02 
       3.659728161809e-01       1.801889150731e+02 
       3.784914370858e-01       1.707676553974e+02 
       3.915173351682e-01       1.618079431309e+02 
       4.050904948090e-01       1.532883124049e+02 
       4.192575641826e-01       1.451449471708e+02 
       4.340734039692e-01       1.374142124709e+02 
       4.496031094375e-01       1.300535219002e+02 
       4.659246918576e-01       1.230335142445e+02 
       4.831326951266e-01       1.163072312985e+02 
       5.013431662091e-01       1.098813917957e+02 
       5.207006307312e-01       1.037165489307e+02 
       5.413881162216e-01       9.778006699230e+01 
       5.636419455467e-01       9.205425768252e+01 
       5.877742514568e-01       8.650449441779e+01 
       6.142084800805e-01       8.109652533832e+01 
       6.435377417776e-01       7.578989359073e+01 
       6.766254862647e-01       7.053692087778e+01 
       7.147894427111e-01       6.527642343013e+01 
       7.601610727149e-01       5.992584300980e+01 
       8.164440084921e-01       5.436088165121e+01 
       8.906436116882e-01       4.839736228677e+01 
       9.971549790792e-01       4.177432331189e+01 
       1.165409211579e+00       3.429508848735e+01 
       1.433546443935e+00       2.657585163943e+01 
       1.801596371046e+00       2.011271795881e+01 
       2.268014827965e+00       1.511202459905e+01 
       2.855261270567e+00       1.120902603773e+01 
       3.594560970704e+00       8.154788491816e+00 
       4.525284150263e+00       5.790494627002e+00 
       5.696995212356e+00       3.999367157781e+00 
       7.172092043704e+00       2.681756643577e+00 
       9.029128929546e+00       1.745940458243e+00 
       1.136699985577e+01       1.106203595477e+00 
