# Matter power spectrum P(k) at redshift z=1.5
# for k=1.11189e-05 to 11.1307 h/Mpc,
# number of wavenumbers equal to 122
#    1:k (h/Mpc)              2:P (Mpc/h)^3        
       1.111887212663e-05       6.414500191058e+00 
       1.399783067071e-05       8.037340421264e+00 
       1.762222474135e-05       1.007074570634e+01 
       2.218506653923e-05       1.261858015028e+01 
       2.792934402858e-05       1.581097444405e+01 
       3.516096093232e-05       1.981096955146e+01 
       4.426502722081e-05       2.482281930643e+01 
       5.572636762203e-05       3.110239096122e+01 
       7.015534030636e-05       3.897015794284e+01 
       8.832034068474e-05       4.882741963494e+01 
       1.111887212663e-04       6.117650432986e+01 
       1.399783067071e-04       7.664583851875e+01 
       1.762222474135e-04       9.602089140664e+01 
       2.218506653923e-04       1.202820253782e+02 
       2.792934402858e-04       1.506501577029e+02 
       3.516096093232e-04       1.886406426591e+02 
       4.426502722081e-04       2.361246835839e+02 
       5.572636762203e-04       2.953956121672e+02 
       7.015534030636e-04       3.692345439752e+02 
       8.832034068474e-04       4.609669299511e+02 
       1.111887212663e-03       5.744990212994e+02 
       1.399783067071e-03       7.143083391589e+02 
       1.762222474135e-03       8.853416548129e+02 
       2.218506653923e-03       1.092800156258e+03 
       2.792934402858e-03       1.341549854523e+03 
       3.516096093232e-03       1.635313205334e+03 
       4.426502722081e-03       1.975409439807e+03 
       5.572636762203e-03       2.356124655813e+03 
       7.015534030636e-03       2.772091132510e+03 
       8.832034068474e-03       3.202016343015e+03 
       1.111887212663e-02       3.612998658421e+03 
       1.399783067071e-02       3.956222043042e+03 
       1.762222474121e-02       4.166965518389e+03 
       2.218506596965e-02       4.175161391330e+03 
       2.792902309565e-02       3.935804665639e+03 
       3.512619280346e-02       3.483342999273e+03 
       4.334161103321e-02       2.998959657554e+03 
       4.986237291387e-02       2.711679452783e+03 
       5.468083496602e-02       2.552451928265e+03 
       5.872027343790e-02       2.443308772565e+03 
       6.235855222202e-02       2.355873806025e+03 
       6.576925039987e-02       2.277435262796e+03 
       6.904636755870e-02       2.201302616903e+03 
       7.224719904745e-02       2.123741793256e+03 
       7.540984949714e-02       2.042964908120e+03 
       7.856143981548e-02       1.958307664223e+03 
       8.172237004447e-02       1.870285423034e+03 
       8.490871505931e-02       1.780013940565e+03 
       8.813365691771e-02       1.689283089761e+03 
       9.140838490803e-02       1.600131464391e+03 
       9.474268455846e-02       1.514696825106e+03 
       9.814533622574e-02       1.434924628138e+03 
       1.016243923971e-01       1.362404701774e+03 
       1.051873750483e-01       1.298143926541e+03 
       1.088414187028e-01       1.242464342084e+03 
       1.125933756221e-01       1.194883913587e+03 
       1.164498939620e-01       1.154212928943e+03 
       1.204174762436e-01       1.118590695920e+03 
       1.245025232549e-01       1.085600035188e+03 
       1.287113670528e-01       1.052689575592e+03 
       1.330502957781e-01       1.017507198447e+03 
       1.375255723604e-01       9.784024044132e+02 
       1.421434487683e-01       9.347360195950e+02 
       1.469101771783e-01       8.871562552553e+02 
       1.518320192513e-01       8.374693108982e+02 
       1.569152545866e-01       7.882445806174e+02 
       1.621661893485e-01       7.421979791047e+02 
       1.675911660105e-01       7.015569402673e+02 
       1.731965751356e-01       6.673651256441e+02 
       1.789888700905e-01       6.393011349653e+02 
       1.849745855791e-01       6.157142989514e+02 
       1.911603608729e-01       5.941445596430e+02 
       1.975529686121e-01       5.717960851275e+02 
       2.041593500552e-01       5.466084349856e+02 
       2.109866576724e-01       5.183118946858e+02 
       2.180423060132e-01       4.884323724618e+02 
       2.253340318475e-01       4.593769302959e+02 
       2.328699646805e-01       4.333509434892e+02 
       2.406587089110e-01       4.114965555623e+02 
       2.487094391315e-01       3.934546117797e+02 
       2.570320104017e-01       3.774101161954e+02 
       2.656370857770e-01       3.612035763260e+02 
       2.745362839804e-01       3.435810779772e+02 
       2.837423509120e-01       3.247726882757e+02 
       2.932693597608e-01       3.063309419257e+02 
       3.031329458935e-01       2.899076943014e+02 
       3.133505845699e-01       2.759174654100e+02 
       3.239419220285e-01       2.634784924015e+02 
       3.349291738430e-01       2.511972316918e+02 
       3.463376090128e-01       2.383523045501e+02 
       3.581961445164e-01       2.254794175751e+02 
       3.705380838005e-01       2.135589122243e+02 
       3.834020450297e-01       2.029996040781e+02 
       3.968331426887e-01       1.931814548702e+02 
       4.108845120900e-01       1.834025879949e+02 
       4.256193050311e-01       1.736538230058e+02 
       4.411133436727e-01       1.644670410877e+02 
       4.574587112059e-01       1.559846450843e+02 
       4.747687037489e-01       1.478371402958e+02 
       4.931848069842e-01       1.397774021134e+02 
       5.128867651019e-01       1.320307314451e+02 
       5.341075165328e-01       1.246745234336e+02 
       5.571560569739e-01       1.174417178429e+02 
       5.824537355759e-01       1.103545641477e+02 
       6.105943800035e-01       1.034302268815e+02 
       6.424489990188e-01       9.651361059246e+01 
       6.793591835549e-01       8.957480493213e+01 
       7.235198812262e-01       8.246309957449e+01 
       7.787983466681e-01       7.501365199632e+01 
       8.526234142375e-01       6.695001115862e+01 
       9.604162767357e-01       5.789494904265e+01 
       1.132818899165e+00       4.762664336221e+01 
       1.402600102979e+00       3.723131423106e+01 
       1.764112105652e+00       2.859359186673e+01 
       2.220860999767e+00       2.175425565903e+01 
       2.795898280302e+00       1.628278171928e+01 
       3.519827393839e+00       1.191253458114e+01 
       4.431200151233e+00       8.476448437794e+00 
       5.578550475133e+00       5.846749831011e+00 
       7.022978954122e+00       3.905170281185e+00 
       8.841406671840e+00       2.530079169925e+00 
       1.113067153519e+01       1.596043918819e+00 
