# Matter power spectrum P(k) at redshift z=1
# for k=1.11189e-05 to 11.1307 h/Mpc,
# number of wavenumbers equal to 122
#    1:k (h/Mpc)              2:P (Mpc/h)^3        
       1.111887212663e-05       9.689025259001e+00 
       1.399783067071e-05       1.214030526961e+01 
       1.762222474135e-05       1.521173725968e+01 
       2.218506653923e-05       1.906020804762e+01 
       2.792934402858e-05       2.388227517290e+01 
       3.516096093232e-05       2.992420750061e+01 
       4.426502722081e-05       3.749452124221e+01 
       5.572636762203e-05       4.697968933892e+01 
       7.015534030636e-05       5.886375800194e+01 
       8.832034068474e-05       7.375283721741e+01 
       1.111887212663e-04       9.240559278665e+01 
       1.399783067071e-04       1.157710699438e+02 
       1.762222474135e-04       1.450353490110e+02 
       2.218506653923e-04       1.816785625520e+02 
       2.792934402858e-04       2.275435893478e+02 
       3.516096093232e-04       2.849169890187e+02 
       4.426502722081e-04       3.566211306433e+02 
       5.572636762203e-04       4.461137312309e+02 
       7.015534030636e-04       5.575873608023e+02 
       8.832034068474e-04       6.960577686169e+02 
       1.111887212663e-03       8.674249992809e+02 
       1.399783067071e-03       1.078461169682e+03 
       1.762222474135e-03       1.336641907309e+03 
       2.218506653923e-03       1.649812654505e+03 
       2.792934402858e-03       2.025321875576e+03 
       3.516096093232e-03       2.468787666106e+03 
       4.426502722081e-03       2.982202140580e+03 
       5.572636762203e-03       3.554819463600e+03 
       7.015534030636e-03       4.181836048263e+03 
       8.832034068474e-03       4.829317725730e+03 
       1.111887212663e-02       5.447869330537e+03 
       1.399783067071e-02       5.963581496257e+03 
       1.762222474121e-02       6.278839431415e+03 
       2.218506596965e-02       6.288210443203e+03 
       2.792902309565e-02       5.924359029615e+03 
       3.512619280346e-02       5.239854754713e+03 
       4.334161103321e-02       4.508356352704e+03 
       4.986237291387e-02       4.074770562179e+03 
       5.468083496602e-02       3.834489036360e+03 
       5.872027343790e-02       3.669802730024e+03 
       6.235855222202e-02       3.537916861202e+03 
       6.576925039987e-02       3.419768934812e+03 
       6.904636755870e-02       3.305186928391e+03 
       7.224719904745e-02       3.188576806583e+03 
       7.540984949714e-02       3.067287991241e+03 
       7.856143981548e-02       2.940282946222e+03 
       8.172237004447e-02       2.808340474433e+03 
       8.490871505931e-02       2.673090158814e+03 
       8.813365691771e-02       2.537288231073e+03 
       9.140838490803e-02       2.403938415026e+03 
       9.474268455846e-02       2.276212584859e+03 
       9.814533622574e-02       2.157022912056e+03 
       1.016243923971e-01       2.048739718587e+03 
       1.051873750483e-01       1.952865436607e+03 
       1.088414187028e-01       1.869852689171e+03 
       1.125933756221e-01       1.798980893683e+03 
       1.164498939620e-01       1.738470330925e+03 
       1.204174762436e-01       1.685523674681e+03 
       1.245025232549e-01       1.636536075880e+03 
       1.287113670528e-01       1.587733276640e+03 
       1.330502957781e-01       1.535557526103e+03 
       1.375255723604e-01       1.477553318592e+03 
       1.421434487683e-01       1.412755119058e+03 
       1.469101771783e-01       1.342130495398e+03 
       1.518320192513e-01       1.268381024547e+03 
       1.569152545866e-01       1.195353195911e+03 
       1.621661893485e-01       1.127068418942e+03 
       1.675911660105e-01       1.066857517969e+03 
       1.731965751356e-01       1.016275018728e+03 
       1.789888700905e-01       9.748423586720e+02 
       1.849745855791e-01       9.400763414445e+02 
       1.911603608729e-01       9.083368804034e+02 
       1.975529686121e-01       8.754315645161e+02 
       2.041593500552e-01       8.382756269608e+02 
       2.109866576724e-01       7.964510158139e+02 
       2.180423060132e-01       7.522529977231e+02 
       2.253340318475e-01       7.092766528697e+02 
       2.328699646805e-01       6.708003877378e+02 
       2.406587089110e-01       6.385368029130e+02 
       2.487094391315e-01       6.119474206652e+02 
       2.570320104017e-01       5.883152001845e+02 
       2.656370857770e-01       5.644237734286e+02 
       2.745362839804e-01       5.383942326491e+02 
       2.837423509120e-01       5.105707443304e+02 
       2.932693597608e-01       4.832694884845e+02 
       3.031329458935e-01       4.589601457978e+02 
       3.133505845699e-01       4.382587219439e+02 
       3.239419220285e-01       4.198469258339e+02 
       3.349291738430e-01       4.016461719506e+02 
       3.463376090128e-01       3.825810258351e+02 
       3.581961445164e-01       3.634532416732e+02 
       3.705380838005e-01       3.457220393597e+02 
       3.834020450297e-01       3.299960045645e+02 
       3.968331426887e-01       3.153478817390e+02 
       4.108845120900e-01       3.007393546521e+02 
       4.256193050311e-01       2.861491912941e+02 
       4.411133436727e-01       2.723762440645e+02 
       4.574587112059e-01       2.596210899659e+02 
       4.747687037489e-01       2.473393982841e+02 
       4.931848069842e-01       2.351633649145e+02 
       5.128867651019e-01       2.234234783858e+02 
       5.341075165328e-01       2.122293374766e+02 
       5.571560569739e-01       2.011835721776e+02 
       5.824537355759e-01       1.903133122673e+02 
       6.105943800035e-01       1.796317624808e+02 
       6.424489990188e-01       1.689008256783e+02 
       6.793591835549e-01       1.580548645933e+02 
       7.235198812262e-01       1.468408261369e+02 
       7.787983466681e-01       1.349610442170e+02 
       8.526234142375e-01       1.219088019934e+02 
       9.604162767357e-01       1.069400700288e+02 
       1.132818899165e+00       8.942524430176e+01 
       1.402600102979e+00       7.089757885637e+01 
       1.764112105652e+00       5.474026777864e+01 
       2.220860999767e+00       4.144317475551e+01 
       2.795898280302e+00       3.056846875826e+01 
       3.519827393839e+00       2.184528879151e+01 
       4.431200151233e+00       1.507942981030e+01 
       5.578550475133e+00       1.005820695572e+01 
       7.022978954122e+00       6.505348339786e+00 
       8.841406671840e+00       4.099722815914e+00 
       1.113067153519e+01       2.530090024401e+00 
