# Matter power spectrum P(k) at redshift z=0
# for k=1.01046e-05 to 10.1156 h/Mpc,
# number of wavenumbers equal to 122
#    1:k (h/Mpc)              2:P (Mpc/h)^3        
       1.010455554853e-05       6.843799035248e+01 
       1.272088175493e-05       8.511508055440e+01 
       1.601464130171e-05       1.058558725985e+02 
       2.016123889549e-05       1.316505838736e+02 
       2.538149597878e-05       1.637303259669e+02 
       3.195341027704e-05       2.036261181438e+02 
       4.022696019125e-05       2.532412876962e+02 
       5.064274242400e-05       3.149418094283e+02 
       6.375543536052e-05       3.916677506282e+02 
       8.026333771536e-05       4.870709196289e+02 
       1.010455554853e-04       6.056836890059e+02 
       1.272088175493e-04       7.531247035786e+02 
       1.601464130171e-04       9.363464295145e+02 
       2.016123889549e-04       1.163927336315e+03 
       2.538149597878e-04       1.446406358243e+03 
       3.195341027704e-04       1.796647454808e+03 
       4.022696019125e-04       2.230206733062e+03 
       5.064274242400e-04       2.765655649469e+03 
       6.375543536052e-04       3.424796026070e+03 
       8.026333771536e-04       4.232675610448e+03 
       1.010455554853e-03       5.217208190027e+03 
       1.272088175493e-03       6.407965560120e+03 
       1.601464130171e-03       7.833664708113e+03 
       2.016123889549e-03       9.518117691349e+03 
       2.538149597878e-03       1.147408232055e+04 
       3.195341027704e-03       1.369492791305e+04 
       4.022696019125e-03       1.614455016595e+04 
       5.064274242400e-03       1.874605625994e+04 
       6.375543536052e-03       2.127456301534e+04 
       8.026333771536e-03       2.370105835220e+04 
       1.010455554853e-02       2.571477178827e+04 
       1.272088175493e-02       2.702499717382e+04 
       1.601464130170e-02       2.733526463379e+04 
       2.016123881333e-02       2.640177070846e+04 
       2.538142179222e-02       2.417975940090e+04 
       3.194161047227e-02       2.098299030683e+04 
       3.978253579508e-02       1.764998808931e+04 
       4.664629624021e-02       1.543007373477e+04 
       5.158552456909e-02       1.416248300265e+04 
       5.561753762347e-02       1.326267001063e+04 
       5.919832617007e-02       1.252817576074e+04 
       6.252769841015e-02       1.187987046093e+04 
       6.570996396310e-02       1.128069680830e+04 
       6.880705546949e-02       1.071366569520e+04 
       7.185935515852e-02       1.017145771702e+04 
       7.489515738777e-02       9.652072401748e+03 
       7.793547053065e-02       9.156921346859e+03 
       8.099666743285e-02       8.688615191398e+03 
       8.409204759358e-02       8.249946625791e+03 
       8.723280750900e-02       7.843509179376e+03 
       9.042866968538e-02       7.471001129755e+03 
       9.368830497335e-02       7.132178450575e+03 
       9.701962449261e-02       6.824947012253e+03 
       1.004299863004e-01       6.545695828799e+03 
       1.039263445691e-01       6.288992925431e+03 
       1.075153589210e-01       6.048912416340e+03 
       1.112034754810e-01       5.818448099518e+03 
       1.149969874272e-01       5.591923758725e+03 
       1.189020804259e-01       5.365123291502e+03 
       1.229248667820e-01       5.135576752181e+03 
       1.270714111138e-01       4.903977796213e+03 
       1.313477496852e-01       4.672629544677e+03 
       1.357599050767e-01       4.446200259740e+03 
       1.403138975751e-01       4.230201244781e+03 
       1.450157544651e-01       4.028837829410e+03 
       1.498715182788e-01       3.844811247240e+03 
       1.548872549737e-01       3.678106152489e+03 
       1.600690629626e-01       3.526156423974e+03 
       1.654230838820e-01       3.384698882062e+03 
       1.709555159717e-01       3.248910793105e+03 
       1.766726309171e-01       3.115018367987e+03 
       1.825807950035e-01       2.981157789597e+03 
       1.886864954233e-01       2.848420532186e+03 
       1.949963725795e-01       2.718714446883e+03 
       2.015172592421e-01       2.596173651029e+03 
       2.082562274439e-01       2.483057313016e+03 
       2.152206440551e-01       2.379054396865e+03 
       2.224182360712e-01       2.282399640240e+03 
       2.298571667869e-01       2.190522497224e+03 
       2.375461242378e-01       2.101028210398e+03 
       2.454944235820e-01       2.014064071401e+03 
       2.537121254983e-01       1.930798252808e+03 
       2.622101732175e-01       1.851793159408e+03 
       2.710005515302e-01       1.777321255353e+03 
       2.800964720710e-01       1.707523108425e+03 
       2.895125904479e-01       1.641397102503e+03 
       2.992652624652e-01       1.577882491050e+03 
       3.093728489204e-01       1.517098142572e+03 
       3.198560814569e-01       1.458944895658e+03 
       3.307385060111e-01       1.403748313896e+03 
       3.420470259645e-01       1.351310773436e+03 
       3.538125748354e-01       1.301143835523e+03 
       3.660709592427e-01       1.253164040988e+03 
       3.788639284566e-01       1.206972134752e+03 
       3.922405495420e-01       1.162778930146e+03 
       4.062590007360e-01       1.120308063401e+03 
       4.209889465804e-01       1.079392462670e+03 
       4.365147369952e-01       1.039753017031e+03 
       4.529397970892e-01       1.001414943145e+03 
       4.703927772523e-01       9.641067627497e+02 
       4.890363729832e-01       9.276279660127e+02 
       5.090803132207e-01       8.918278163488e+02 
       5.308010770367e-01       8.564485050039e+02 
       5.545728927965e-01       8.212141117346e+02 
       5.809185090195e-01       7.857734581200e+02 
       6.105964332280e-01       7.496881922111e+02 
       6.447595546547e-01       7.123481327206e+02 
       6.852633801321e-01       6.728791906388e+02 
       7.353123554855e-01       6.298821821421e+02 
       8.009255828011e-01       5.810682092421e+02 
       8.944060325044e-01       5.225583285722e+02 
       1.041130650251e+00       4.489343957852e+02 
       1.276405805904e+00       3.605472324727e+02 
       1.603276053467e+00       2.742454000686e+02 
       2.018325886971e+00       2.007215510590e+02 
       2.540921403102e+00       1.415304642802e+02 
       3.198830523517e+00       9.643459403049e+01 
       4.027089034078e+00       6.381358390682e+01 
       5.069804720559e+00       4.122790221699e+01 
       6.382505995546e+00       2.613342858424e+01 
       8.035098988721e+00       1.632165905995e+01 
       1.011559030318e+01       1.007864574459e+01 
