# Matter power spectrum P(k) at redshift z=2.5
# for k=8.32437e-06 to 10.4923 h/Mpc,
# number of wavenumbers equal to 123
#    1:k (h/Mpc)              2:P (Mpc/h)^3        
       8.324371040533e-06       1.486956379343e+01 
       1.047976224013e-05       1.864948995730e+01 
       1.319323899366e-05       2.339025341977e+01 
       1.660930383299e-05       2.933605541177e+01 
       2.090987466757e-05       3.679311970596e+01 
       2.632397257643e-05       4.614541161875e+01 
       3.313991801584e-05       5.787429372664e+01 
       4.172068493492e-05       7.258307982713e+01 
       5.252323046202e-05       9.102762575922e+01 
       6.612282953816e-05       1.141542908735e+02 
       8.324371040533e-05       1.431467656239e+02 
       1.047976224013e-04       1.794832117790e+02 
       1.319323899366e-04       2.250048779232e+02 
       1.660930383299e-04       2.819961624474e+02 
       2.090987466757e-04       3.532735719456e+02 
       2.632397257643e-04       4.422757790319e+02 
       3.313991801584e-04       5.531375348098e+02 
       4.172068493492e-04       6.907155051838e+02 
       5.252323046202e-04       8.605164101740e+02 
       6.612282953816e-04       1.068469089405e+03 
       8.324371040533e-04       1.320504068287e+03 
       1.047976224013e-03       1.621950966400e+03 
       1.319323899366e-03       1.976696098228e+03 
       1.660930383299e-03       2.385730135829e+03 
       2.090987466757e-03       2.844910287881e+03 
       2.632397257643e-03       3.342884412012e+03 
       3.313991801584e-03       3.859349035407e+03 
       4.172068493492e-03       4.363626023796e+03 
       5.252323046202e-03       4.814860032281e+03 
       6.612282953816e-03       5.164030156138e+03 
       8.324371040533e-03       5.356448744667e+03 
       1.047976224013e-02       5.338306395591e+03 
       1.319323899366e-02       5.062965820347e+03 
       1.660930383261e-02       4.506846382908e+03 
       2.090987341528e-02       3.698367285655e+03 
       2.632340656198e-02       2.756617152430e+03 
       3.308869357900e-02       1.900401425669e+03 
       4.057581794350e-02       1.373620577421e+03 
       4.629356151134e-02       1.175968234747e+03 
       5.058991207153e-02       1.090883764785e+03 
       5.423326110822e-02       1.037524295641e+03 
       5.753505626227e-02       9.920164856512e+02 
       6.064165809670e-02       9.452843505853e+02 
       6.363366601878e-02       8.938015386652e+02 
       6.656080524492e-02       8.368440677218e+02 
       6.945645170390e-02       7.753594410047e+02 
       7.234453641360e-02       7.112939327616e+02 
       7.524317069925e-02       6.471006209938e+02 
       7.816670073251e-02       5.853328370432e+02 
       8.112694415648e-02       5.282820954981e+02 
       8.413397138041e-02       4.777601793300e+02 
       8.719661916379e-02       4.349366012834e+02 
       9.032283945060e-02       4.002816772933e+02 
       9.351994279721e-02       3.736191561529e+02 
       9.679477205236e-02       3.541413589040e+02 
       1.001538285009e-01       3.405300459842e+02 
       1.036033647535e-01       3.310394648446e+02 
       1.071494538359e-01       3.236013288805e+02 
       1.107980409066e-01       3.160593910406e+02 
       1.145549820991e-01       3.064584347154e+02 
       1.184260737213e-01       2.933955750079e+02 
       1.224170742127e-01       2.763716001467e+02 
       1.265337207083e-01       2.559353545792e+02 
       1.307817416855e-01       2.335306724698e+02 
       1.351668669294e-01       2.111435186337e+02 
       1.396948358899e-01       1.907589175745e+02 
       1.443714053999e-01       1.738382629736e+02 
       1.492023576597e-01       1.610302669530e+02 
       1.541935093505e-01       1.521071438421e+02 
       1.593507227157e-01       1.460527550463e+02 
       1.646799194307e-01       1.413167216766e+02 
       1.701870980716e-01       1.362638431892e+02 
       1.758783559865e-01       1.296568910573e+02 
       1.817599163693e-01       1.210397935033e+02 
       1.878381613438e-01       1.111674473473e+02 
       1.941196718775e-01       1.012651067162e+02 
       2.006112753887e-01       9.257259778271e+01 
       2.073201019664e-01       8.577080318938e+01 
       2.142536502321e-01       8.067535896278e+01 
       2.214198640252e-01       7.653309706733e+01 
       2.288272213194e-01       7.255532412609e+01 
       2.364848370920e-01       6.817608239949e+01 
       2.444025822966e-01       6.323082053060e+01 
       2.525912216660e-01       5.817223831928e+01 
       2.610625738368e-01       5.365584112407e+01 
       2.698296983019e-01       4.991314370745e+01 
       2.789071150348e-01       4.678716702785e+01 
       2.883110644080e-01       4.388416447315e+01 
       2.980598173980e-01       4.086767975379e+01 
       3.081740492610e-01       3.782473632927e+01 
       3.186772942073e-01       3.495501226223e+01 
       3.295965045807e-01       3.242384773728e+01 
       3.409627464007e-01       3.018691276914e+01 
       3.528120749524e-01       2.803055553826e+01 
       3.651866511481e-01       2.591550403636e+01 
       3.781361843453e-01       2.391890032842e+01 
       3.917198245896e-01       2.210467933736e+01 
       4.060086840928e-01       2.039912401385e+01 
       4.210892564223e-01       1.877772682573e+01 
       4.370681436933e-01       1.724701564203e+01 
       4.540787353172e-01       1.579954165605e+01 
       4.722908776856e-01       1.444227564663e+01 
       4.919252698469e-01       1.314784913926e+01 
       5.132755923232e-01       1.191903218908e+01 
       5.367438092591e-01       1.074597373078e+01 
       5.628989817285e-01       9.618833213382e+00 
       5.925803776708e-01       8.529647663475e+00 
       6.270894471769e-01       7.468484893591e+00 
       6.685732768348e-01       6.420427321666e+00 
       7.208531178995e-01       5.370281058612e+00 
       7.913499120212e-01       4.298450716062e+00 
       8.955531526139e-01       3.193071676981e+00 
       1.063355499588e+00       2.104609105136e+00 
       1.321684854594e+00       1.234031956732e+00 
       1.662920375864e+00       6.974350805582e-01 
       2.093480694767e+00       3.910717639360e-01 
       2.635536019090e+00       2.180125890559e-01 
       3.317943268123e+00       1.208876853188e-01 
       4.177043095132e+00       6.670403951305e-02 
       5.258585698621e+00       3.664077575409e-02 
       6.620167166091e+00       2.004320684645e-02 
       8.334296675717e+00       1.092173055165e-02 
       1.049225787449e+01       5.929899317466e-03 
