# Matter power spectrum P(k) at redshift z=1
# for k=7.41911e-06 to 11.7732 h/Mpc,
# number of wavenumbers equal to 124
#    1:k (h/Mpc)              2:P (Mpc/h)^3        
       7.419107711780e-06       4.454521483305e+01 
       9.340103231198e-06       5.591511046684e+01 
       1.175849330654e-05       7.018697987209e+01 
       1.480306602801e-05       8.810134076935e+01 
       1.863595599513e-05       1.105874718234e+02 
       2.346127857535e-05       1.388114705456e+02 
       2.953599979168e-05       1.742363746141e+02 
       3.718362070050e-05       2.186968652383e+02 
       4.681140500237e-05       2.744928277472e+02 
       5.893206731928e-05       3.445047437296e+02 
       7.419107711780e-05       4.323357006869e+02 
       9.340103231198e-05       5.424834678509e+02 
       1.175849330654e-04       6.805447745903e+02 
       1.480306602801e-04       8.534489053159e+02 
       1.863595599513e-04       1.069708430198e+03 
       2.346127857535e-04       1.339656287762e+03 
       2.953599979168e-04       1.675609850099e+03 
       3.718362070050e-04       2.091866466931e+03 
       4.681140500237e-04       2.604410687357e+03 
       5.893206731928e-04       3.230234556590e+03 
       7.419107711780e-04       3.986207650481e+03 
       9.340103231198e-04       4.887235749617e+03 
       1.175849330654e-03       5.942914332146e+03 
       1.480306602801e-03       7.152390320870e+03 
       1.863595599513e-03       8.498534716087e+03 
       2.346127857535e-03       9.941946777789e+03 
       2.953599979168e-03       1.141644156270e+04 
       3.718362070050e-03       1.282605531013e+04 
       4.681140500237e-03       1.404732416942e+04 
       5.893206731928e-03       1.493860114060e+04 
       7.419107711780e-03       1.534665263511e+04 
       9.340103231198e-03       1.512808655397e+04 
       1.175849330654e-02       1.416767527017e+04 
       1.480306602747e-02       1.242511398190e+04 
       1.863595443317e-02       1.001629791877e+04 
       2.346063213297e-02       7.316378575412e+03 
       2.948156507497e-02       4.957351191117e+03 
       3.605031459314e-02       3.580533864916e+03 
       4.100008820610e-02       3.084236629342e+03 
       4.474573194412e-02       2.870504015385e+03 
       4.793613999878e-02       2.733833131622e+03 
       5.083436439546e-02       2.613783125813e+03 
       5.356515413403e-02       2.487501115907e+03 
       5.619766384451e-02       2.346680330600e+03 
       5.877476314557e-02       2.190380092603e+03 
       6.132533223806e-02       2.021957041534e+03 
       6.387013981247e-02       1.847420983408e+03 
       6.642494260839e-02       1.673858690220e+03 
       6.900224794058e-02       1.508320740512e+03 
       7.161237740309e-02       1.357023847976e+03 
       7.426414037602e-02       1.224537336698e+03 
       7.696527754817e-02       1.113696837845e+03 
       7.972276261052e-02       1.025377715823e+03 
       8.254301304468e-02       9.586407367422e+02 
       8.543204066463e-02       9.109163137890e+02 
       8.839556104078e-02       8.784064755216e+02 
       9.143907412522e-02       8.560292366750e+02 
       9.456792424279e-02       8.380671077593e+02 
       9.778734500932e-02       8.187528608584e+02 
       1.011024930697e-01       7.928702358726e+02 
       1.045184734610e-01       7.570729094533e+02 
       1.080403586858e-01       7.105373922757e+02 
       1.116732031048e-01       6.552196180476e+02 
       1.154220539379e-01       5.954753926875e+02 
       1.192919599518e-01       5.367745522538e+02 
       1.232879787756e-01       4.843177079004e+02 
       1.274151836945e-01       4.416738567398e+02 
       1.316786707167e-01       4.100763385115e+02 
       1.360835666730e-01       3.885068467676e+02 
       1.406350390860e-01       3.739397887891e+02 
       1.453383085324e-01       3.620891117086e+02 
       1.501986642122e-01       3.486689993565e+02 
       1.552214834320e-01       3.307768431333e+02 
       1.604122557079e-01       3.076051383164e+02 
       1.657766121991e-01       2.816536092909e+02 
       1.713203611972e-01       2.562389876893e+02 
       1.770495304319e-01       2.344488408672e+02 
       1.829704170094e-01       2.176865450334e+02 
       1.890896458942e-01       2.051203185099e+02 
       1.954142379840e-01       1.946293918995e+02 
       2.019516890304e-01       1.842431614388e+02 
       2.087100609379e-01       1.726895648297e+02 
       2.156980873594e-01       1.598016796664e+02 
       2.229252960177e-01       1.469060881922e+02 
       2.304021508717e-01       1.356137470542e+02 
       2.381402181464e-01       1.263018585824e+02 
       2.461523614454e-01       1.184069388083e+02 
       2.544529727525e-01       1.109255758192e+02 
       2.630582482472e-01       1.031281454294e+02 
       2.719865207172e-01       9.536540822916e+01 
       2.812586642346e-01       8.814395012645e+01 
       2.908985921203e-01       8.179581822770e+01 
       3.009338767049e-01       7.612875404435e+01 
       3.113965300029e-01       7.061119582172e+01 
       3.223239997140e-01       6.523382571781e+01 
       3.337604573925e-01       6.020505826564e+01 
       3.457584891615e-01       5.562666549291e+01 
       3.583813505289e-01       5.130433543109e+01 
       3.717060267920e-01       4.719741873871e+01 
       3.858274685383e-01       4.333185565428e+01 
       4.008645826155e-01       3.967968427871e+01 
       4.169689173842e-01       3.624839647851e+01 
       4.343376121914e-01       3.297856329609e+01 
       4.532333375134e-01       2.988001188761e+01 
       4.740161695216e-01       2.692004031794e+01 
       4.971968183942e-01       2.407688287068e+01 
       5.235302065598e-01       2.133022991849e+01 
       5.541902685303e-01       1.865527993897e+01 
       5.911204191969e-01       1.601139923269e+01 
       6.377938468557e-01       1.336276288576e+01 
       7.009853498882e-01       1.065826826593e+01 
       7.948601925155e-01       7.873405435561e+00 
       9.463651371846e-01       5.149460568669e+00 
       1.177901660033e+00       3.004878671505e+00 
       1.482170142610e+00       1.695850588525e+00 
       1.865933508400e+00       9.500160545770e-01 
       2.349071094006e+00       5.292073147398e-01 
       2.957305294351e+00       2.932591628160e-01 
       3.723026785492e+00       1.617305744271e-01 
       4.687013029046e+00       8.880292070574e-02 
       5.900599807676e+00       4.856318254617e-02 
       7.428415042711e+00       2.645505519496e-02 
       9.351820466623e+00       1.436059890774e-02 
       1.177324443197e+01       7.769233608963e-03 
