# Matter power spectrum P(k) at redshift z=0.5
# for k=1.17885e-05 to 11.8024 h/Mpc,
# number of wavenumbers equal to 122
#    1:k (h/Mpc)              2:P (Mpc/h)^3        
       1.178851293999e-05       2.529129655116e+01 
       1.484085850741e-05       3.146736512349e+01 
       1.868353390783e-05       3.915157339339e+01 
       2.352117561868e-05       4.871215652819e+01 
       2.961140570163e-05       6.060721766676e+01 
       3.727855111673e-05       7.540664446694e+01 
       4.693091531572e-05       9.381926600407e+01 
       5.908252188972e-05       1.167266677982e+02 
       7.438048819985e-05       1.452249259151e+02 
       9.363948673645e-05       1.806763004673e+02 
       1.178851293999e-04       2.247728051756e+02 
       1.484085850741e-04       2.796139192824e+02 
       1.868353390783e-04       3.478006641120e+02 
       2.352117561868e-04       4.325476102534e+02 
       2.961140570163e-04       5.378127952248e+02 
       3.727855111673e-04       6.684422262348e+02 
       4.693091531572e-04       8.303198697474e+02 
       5.908252188972e-04       1.030506048843e+03 
       7.438048819985e-04       1.277338883758e+03 
       9.363948673645e-04       1.580466802823e+03 
       1.178851293999e-03       1.950761811838e+03 
       1.484085850741e-03       2.399987804090e+03 
       1.868353390783e-03       2.939988371949e+03 
       2.352117561868e-03       3.581248082505e+03 
       2.961140570163e-03       4.330740711525e+03 
       3.727855111673e-03       5.188847521087e+03 
       4.693091531572e-03       6.145488165898e+03 
       5.908252188972e-03       7.175665299337e+03 
       7.438048819985e-03       8.234819017634e+03 
       9.363948673645e-03       9.255811682115e+03 
       1.178851293999e-02       1.014715175649e+04 
       1.484085850741e-02       1.079568607720e+04 
       1.868353390782e-02       1.107717547892e+04 
       2.352117556621e-02       1.088082797269e+04 
       2.961135052877e-02       1.015898454215e+04 
       3.726861591876e-02       8.995383526874e+03 
       4.651387321723e-02       7.680662297128e+03 
       5.487941009680e-02       6.732683766783e+03 
       6.087368220346e-02       6.180474914055e+03 
       6.572230007797e-02       5.787298780324e+03 
       7.000752383224e-02       5.465536006343e+03 
       7.398084825752e-02       5.181129520824e+03 
       7.777199070612e-02       4.918517047883e+03 
       8.145730964934e-02       4.670001082707e+03 
       8.508627473335e-02       4.432356087285e+03 
       8.869337265601e-02       4.204369303680e+03 
       9.230410333960e-02       3.986405222253e+03 
       9.593827032538e-02       3.779329965303e+03 
       9.961191120922e-02       3.584325604487e+03 
       1.033384922694e-01       3.402311369704e+03 
       1.071296805114e-01       3.233841399301e+03 
       1.109958607330e-01       3.078933939255e+03 
       1.149464921852e-01       2.936792364000e+03 
       1.189903606409e-01       2.806053469989e+03 
       1.231357600945e-01       2.684650742649e+03 
       1.273906257931e-01       2.570114606692e+03 
       1.317626327799e-01       2.459912052511e+03 
       1.362592694776e-01       2.351728581535e+03 
       1.408878928888e-01       2.243915781198e+03 
       1.456557700839e-01       2.135566372016e+03 
       1.505701093924e-01       2.026795278646e+03 
       1.556380838819e-01       1.918721652808e+03 
       1.608668491589e-01       1.813084287619e+03 
       1.662635571512e-01       1.711972176597e+03 
       1.718353672961e-01       1.617059999883e+03 
       1.775894563939e-01       1.529492736644e+03 
       1.835330282909e-01       1.449275149848e+03 
       1.896733244884e-01       1.375437810763e+03 
       1.960176367369e-01       1.306274801502e+03 
       2.025733226506e-01       1.239933687248e+03 
       2.093478253577e-01       1.174878885448e+03 
       2.163486981944e-01       1.110380655250e+03 
       2.235836354416e-01       1.046862800773e+03 
       2.310605101076e-01       9.850937422511e+02 
       2.387874197705e-01       9.265843651926e+02 
       2.467727415310e-01       8.723316072430e+02 
       2.550251971847e-01       8.222393086853e+02 
       2.635539298326e-01       7.755854362237e+02 
       2.723685933072e-01       7.313359462131e+02 
       2.814794560331e-01       6.885217307431e+02 
       2.908975212777e-01       6.471108211534e+02 
       3.006346662142e-01       6.076535260229e+02 
       3.107038028516e-01       5.703669631536e+02 
       3.211190647224e-01       5.352800900921e+02 
       3.318960243384e-01       5.025076709016e+02 
       3.430519478965e-01       4.716186416530e+02 
       3.546060956652e-01       4.421492598480e+02 
       3.665800790815e-01       4.141439837638e+02 
       3.789982890640e-01       3.875782920392e+02 
       3.918884147587e-01       3.625283035829e+02 
       4.052820783831e-01       3.389768883782e+02 
       4.192156207784e-01       3.166511726332e+02 
       4.337310848720e-01       2.955468869907e+02 
       4.488774622424e-01       2.754764472526e+02 
       4.647122941387e-01       2.565307342225e+02 
       4.813037570223e-01       2.385968230997e+02 
       4.987334211720e-01       2.216091724373e+02 
       5.170999611336e-01       2.054358957335e+02 
       5.365242394604e-01       1.901233021255e+02 
       5.571564167989e-01       1.755438084928e+02 
       5.791861287184e-01       1.616399052959e+02 
       6.028574393637e-01       1.483783039383e+02 
       6.284914840429e-01       1.356716868908e+02 
       6.565219639625e-01       1.234536982376e+02 
       6.875530803460e-01       1.116481073519e+02 
       7.224586795639e-01       1.001721142490e+02 
       7.625616655992e-01       8.891903938197e+01 
       8.099806946761e-01       7.776915565625e+01 
       8.683526256862e-01       6.655650136718e+01 
       9.444615231873e-01       5.506637750866e+01 
       1.052095515927e+00       4.305407881079e+01 
       1.219886604306e+00       3.059244417631e+01 
       1.490249473277e+00       1.912637403135e+01 
       1.870667316057e+00       1.111391423523e+01 
       2.354896643181e+00       6.355033890660e+00 
       2.964638556257e+00       3.603025376223e+00 
       3.732258814754e+00       2.027288976483e+00 
       4.698635465287e+00       1.132834373205e+00 
       5.915231588007e+00       6.290752222188e-01 
       7.446835362789e+00       3.473417252360e-01 
       9.375010275663e+00       1.907822431570e-01 
       1.180243867186e+01       1.042893524660e-01 
