# Matter power spectrum P(k) at redshift z=2.5
# for k=8.57821e-06 to 10.8125 h/Mpc,
# number of wavenumbers equal to 123
#    1:k (h/Mpc)              2:P (Mpc/h)^3        
       8.578206824215e-06       9.467396258825e+00 
       1.079932255863e-05       1.188720183361e+01 
       1.359554159922e-05       1.492547565905e+01 
       1.711577280636e-05       1.874027121815e+01 
       2.154748132843e-05       2.353001594809e+01 
       2.712667180452e-05       2.954380471696e+01 
       3.415045647211e-05       3.709430458310e+01 
       4.299287747711e-05       4.657390733784e+01 
       5.412482598208e-05       5.847491648484e+01 
       6.813911883778e-05       7.341470890256e+01 
       8.578206824215e-05       9.216695418390e+01 
       1.079932255863e-04       1.157000881500e+02 
       1.359554159922e-04       1.452241812754e+02 
       1.711577280636e-04       1.822469882484e+02 
       2.154748132843e-04       2.286389329850e+02 
       2.712667180452e-04       2.867045044971e+02 
       3.415045647211e-04       3.592532218218e+02 
       4.299287747711e-04       4.496561081601e+02 
       5.412482598208e-04       5.618640722787e+02 
       6.813911883778e-04       7.003567849602e+02 
       8.578206824215e-04       8.699932689860e+02 
       1.079932255863e-03       1.075746632240e+03 
       1.359554159922e-03       1.322267348679e+03 
       1.711577280636e-03       1.613068567901e+03 
       2.154748132843e-03       1.949178533563e+03 
       2.712667180452e-03       2.327569884182e+03 
       3.415045647211e-03       2.739415892709e+03 
       4.299287747711e-03       3.168197637308e+03 
       5.412482598209e-03       3.587938249838e+03 
       6.813911883778e-03       3.964233535570e+03 
       8.578206824215e-03       4.252252450403e+03 
       1.079932255863e-02       4.401901461512e+03 
       1.359554159922e-02       4.362743625935e+03 
       1.711577277562e-02       4.098399324008e+03 
       2.154744718751e-02       3.612465029536e+03 
       2.712024451620e-02       2.981700519683e+03 
       3.387010206244e-02       2.376142292087e+03 
       4.004995797607e-02       2.006566651782e+03 
       4.447421067780e-02       1.822616639285e+03 
       4.804091650816e-02       1.703311988624e+03 
       5.118760976378e-02       1.609025059106e+03 
       5.410233352573e-02       1.525146013474e+03 
       5.688165665767e-02       1.445319350229e+03 
       5.958224886167e-02       1.366777523739e+03 
       6.224073965103e-02       1.288656533883e+03 
       6.488261829128e-02       1.211207449099e+03 
       6.752670390308e-02       1.135333424963e+03 
       7.018759329691e-02       1.062283510284e+03 
       7.287709471764e-02       9.933658370115e+02 
       7.560511391926e-02       9.297641805987e+02 
       7.838022617883e-02       8.723895690001e+02 
       8.121005904899e-02       8.217237171155e+02 
       8.410155617649e-02       7.777983130382e+02 
       8.706116364109e-02       7.401402845826e+02 
       9.009496420888e-02       7.078298061144e+02 
       9.320877558893e-02       6.795448307383e+02 
       9.640822319712e-02       6.537227771677e+02 
       9.969879448017e-02       6.287327595802e+02 
       1.030858796648e-01       6.031098079318e+02 
       1.065748023832e-01       5.757961666276e+02 
       1.101708426979e-01       5.463448904289e+02 
       1.138792544326e-01       5.150151719877e+02 
       1.177052783056e-01       4.827356387206e+02 
       1.216541520915e-01       4.508739993787e+02 
       1.257311188546e-01       4.208916373665e+02 
       1.299414341804e-01       3.939958260889e+02 
       1.342903732598e-01       3.708105736277e+02 
       1.387832386291e-01       3.512371037108e+02 
       1.434253693432e-01       3.345207859221e+02 
       1.482221523396e-01       3.194446424460e+02 
       1.531790367375e-01       3.046797900637e+02 
       1.583015518103e-01       2.892272213603e+02 
       1.635953293641e-01       2.727669321449e+02 
       1.690661312542e-01       2.555343294706e+02 
       1.747198827857e-01       2.386811488542e+02 
       1.805627127621e-01       2.231476545511e+02 
       1.866010009968e-01       2.095037214750e+02 
       1.928414341738e-01       1.977080502592e+02 
       1.992910710657e-01       1.871014739382e+02 
       2.059574182853e-01       1.768776352402e+02 
       2.128485179985e-01       1.666652897490e+02 
       2.199730493588e-01       1.564732031738e+02 
       2.273404458876e-01       1.464924769911e+02 
       2.349610316285e-01       1.371518241501e+02 
       2.428461797216e-01       1.287519397583e+02 
       2.510084981076e-01       1.211080407056e+02 
       2.594620484938e-01       1.139022090187e+02 
       2.682226065968e-01       1.069194534182e+02 
       2.773079742057e-01       1.001026009612e+02 
       2.867383570278e-01       9.367940881041e+01 
       2.965368269601e-01       8.771724858485e+01 
       3.067298939224e-01       8.217148428370e+01 
       3.173482215168e-01       7.692770261035e+01 
       3.284275338263e-01       7.186766320559e+01 
       3.400097796158e-01       6.707668734132e+01 
       3.521446482430e-01       6.258050741114e+01 
       3.648915739092e-01       5.833826831613e+01 
       3.783224301589e-01       5.427977107388e+01 
       3.925252196629e-01       5.042560707918e+01 
       4.076092316144e-01       4.676967789438e+01 
       4.237124186052e-01       4.327611848252e+01 
       4.410122276708e-01       3.993739225177e+01 
       4.597419858780e-01       3.673490238646e+01 
       4.802165599981e-01       3.365512290170e+01 
       5.028741873977e-01       3.067100429944e+01 
       5.283479613851e-01       2.776246643929e+01 
       5.575949740457e-01       2.490286164128e+01 
       5.921453816603e-01       2.205783525560e+01 
       6.346202739573e-01       1.917983985420e+01 
       6.898969755433e-01       1.620757112668e+01 
       7.678676829735e-01       1.306838886499e+01 
       8.891135772275e-01       9.743200238034e+00 
       1.084750627853e+00       6.563563592568e+00 
       1.361296100262e+00       4.202958963536e+00 
       1.713659252579e+00       2.689243229545e+00 
       2.157368598116e+00       1.726472385564e+00 
       2.715966150312e+00       1.108789703630e+00 
       3.419198804201e+00       7.096169113412e-01 
       4.304516262585e+00       4.507872511624e-01 
       5.419064908449e+00       2.832533730935e-01 
       6.822198521408e+00       1.755915712571e-01 
       8.588639082906e+00       1.072427003939e-01 
       1.081245599420e+01       6.452766541874e-02 
