# Matter power spectrum P(k) at redshift z=0
# for k=1.15134e-05 to 11.5268 h/Mpc,
# number of wavenumbers equal to 122
#    1:k (h/Mpc)              2:P (Mpc/h)^3        
       1.151338608746e-05       4.484968223801e+01 
       1.449449432130e-05       5.573254244955e+01 
       1.824748723219e-05       6.925610740739e+01 
       2.297222537799e-05       8.606107513455e+01 
       2.892031829382e-05       1.069435719324e+02 
       3.640852361727e-05       1.328927923290e+02 
       4.583561558768e-05       1.651376863675e+02 
       5.770362122856e-05       2.052050019204e+02 
       7.264455511719e-05       2.549910142231e+02 
       9.145407646551e-05       3.168503518696e+02 
       1.151338608746e-04       3.937055027954e+02 
       1.449449432130e-04       4.891812389450e+02 
       1.824748723219e-04       6.077685738034e+02 
       2.297222537799e-04       7.550225352367e+02 
       2.892031829382e-04       9.377969270948e+02 
       3.640852361727e-04       1.164516251031e+03 
       4.583561558768e-04       1.445479820186e+03 
       5.770362122856e-04       1.793185588713e+03 
       7.264455511719e-04       2.222652337629e+03 
       9.145407646551e-04       2.751702687025e+03 
       1.151338608746e-03       3.401120686470e+03 
       1.449449432130e-03       4.194492748517e+03 
       1.824748723219e-03       5.157428524737e+03 
       2.297222537799e-03       6.316031902075e+03 
       2.892031829382e-03       7.694239553643e+03 
       3.640852361727e-03       9.309050732856e+03 
       4.583561558768e-03       1.116398968178e+04 
       5.770362122856e-03       1.316198056891e+04 
       7.264455511719e-03       1.536781884108e+04 
       9.145407646551e-03       1.762389171213e+04 
       1.151338608746e-02       1.976055509193e+04 
       1.449449432130e-02       2.153693398102e+04 
       1.824748723184e-02       2.264856248179e+04 
       2.297222417875e-02       2.278230684090e+04 
       2.891975644199e-02       2.175498358267e+04 
       3.635616238837e-02       1.973775734130e+04 
       4.463142467939e-02       1.757649485969e+04 
       5.098788302779e-02       1.626816413937e+04 
       5.575067462969e-02       1.548357437342e+04 
       5.978219168949e-02       1.491126533535e+04 
       6.343216957244e-02       1.443414658829e+04 
       6.686435269233e-02       1.399819023721e+04 
       7.016866940315e-02       1.357429757600e+04 
       7.340049166533e-02       1.314654938224e+04 
       7.659692994101e-02       1.270733268053e+04 
       7.978456101048e-02       1.225383669391e+04 
       8.298347842970e-02       1.178908398049e+04 
       8.620958493194e-02       1.131893136706e+04 
       8.947597071888e-02       1.085153789356e+04 
       9.279378348835e-02       1.039641933848e+04 
       9.617279993054e-02       9.963370110493e+03 
       9.962181366326e-02       9.561055560828e+03 
       1.031489058113e-01       9.196016951020e+03 
       1.067616379806e-01       8.871862071933e+03 
       1.104671923698e-01       8.588622466375e+03 
       1.142724749220e-01       8.342289309392e+03 
       1.181841920326e-01       8.124968433372e+03 
       1.222089079653e-01       7.925642405859e+03 
       1.263530879722e-01       7.731579788194e+03 
       1.306231307082e-01       7.529474958694e+03 
       1.350253926069e-01       7.308661184828e+03 
       1.395662062645e-01       7.062855560164e+03 
       1.442518944731e-01       6.792650057535e+03 
       1.490887812669e-01       6.505330263982e+03 
       1.540832011709e-01       6.213697716898e+03 
       1.592415077247e-01       5.933054265983e+03 
       1.645700822789e-01       5.677466435128e+03 
       1.700753440200e-01       5.455847797220e+03 
       1.757637621481e-01       5.269465446207e+03 
       1.816418711141e-01       5.111584714636e+03 
       1.877162898114e-01       4.968389406565e+03 
       1.939937456090e-01       4.824044263503e+03 
       2.004811041089e-01       4.666138818057e+03 
       2.071854055183e-01       4.488320054869e+03 
       2.141139085432e-01       4.295304751548e+03 
       2.212741427513e-01       4.100790733369e+03 
       2.286739704209e-01       3.920426944699e+03 
       2.363216590078e-01       3.763313923031e+03 
       2.442259655285e-01       3.628547095876e+03 
       2.523962344102e-01       3.507955415785e+03 
       2.608425106978e-01       3.390061665203e+03 
       2.695756709807e-01       3.265079155051e+03 
       2.786075750350e-01       3.131808457224e+03 
       2.879512420153e-01       2.997776341473e+03 
       2.976210561426e-01       2.872101712589e+03 
       3.076330083056e-01       2.759946588440e+03 
       3.180049819425e-01       2.658685894104e+03 
       3.287570941707e-01       2.560366674883e+03 
       3.399121066347e-01       2.460179766138e+03 
       3.514959253050e-01       2.359112821894e+03 
       3.635382150178e-01       2.262002281284e+03 
       3.760731636955e-01       2.172127978277e+03 
       3.891404441554e-01       2.087551987884e+03 
       4.027864400715e-01       2.004800679157e+03 
       4.170658299922e-01       1.922600944066e+03 
       4.320436641255e-01       1.843257016800e+03 
       4.477981307946e-01       1.767655318354e+03 
       4.644243064314e-01       1.694702070236e+03 
       4.820393379779e-01       1.623273164300e+03 
       5.007897613716e-01       1.553467569493e+03 
       5.208620918800e-01       1.485736827213e+03 
       5.424985808976e-01       1.419425035676e+03 
       5.660214202271e-01       1.353874861207e+03 
       5.918713240101e-01       1.289084011706e+03 
       6.206717452203e-01       1.224319073975e+03 
       6.533413325395e-01       1.158872764764e+03 
       6.913030328021e-01       1.091746598252e+03 
       7.369011208326e-01       1.021352184398e+03 
       7.943008143873e-01       9.451790470850e+02 
       8.715765833995e-01       8.589463552149e+02 
       9.855687536347e-01       7.553815429264e+02 
       1.168952428915e+00       6.257514840688e+02 
       1.452077684612e+00       4.783449954937e+02 
       1.826890911089e+00       3.439295228533e+02 
       2.299904652266e+00       2.361242131320e+02 
       2.895408377506e+00       1.562421305590e+02 
       3.645103183954e+00       1.005447503326e+02 
       4.588913026891e+00       6.340395160351e+01 
       5.777099222066e+00       3.941016340008e+01 
       7.272937017116e+00       2.424905100075e+01 
       9.156085229225e+00       1.481480881398e+01 
       1.152682836762e+01       9.006043196937e+00 
