# Matter power spectrum P(k) at redshift z=1.5
# for k=8.16564e-06 to 10.2906 h/Mpc,
# number of wavenumbers equal to 123
#    1:k (h/Mpc)              2:P (Mpc/h)^3        
       8.165644720543e-06       2.444973330846e+01 
       1.027993764237e-05       3.047918125620e+01 
       1.294167472965e-05       3.799547991170e+01 
       1.629260318832e-05       4.736524992661e+01 
       2.051117217806e-05       5.904545954473e+01 
       2.582203588065e-05       7.360566163752e+01 
       3.250801715441e-05       9.175565108283e+01 
       4.092516888272e-05       1.143798509923e+02 
       5.152173508843e-05       1.425799493555e+02 
       6.486202156255e-05       1.777276881959e+02 
       8.165644720543e-05       2.215298614839e+02 
       1.027993764237e-04       2.761078321003e+02 
       1.294167472965e-04       3.440936906648e+02 
       1.629260318832e-04       4.287444119263e+02 
       2.051117217806e-04       5.340733476645e+02 
       2.582203588065e-04       6.649941237094e+02 
       3.250801715441e-04       8.274643930945e+02 
       4.092516888272e-04       1.028605398508e+03 
       5.152173508843e-04       1.276760369265e+03 
       6.486202156255e-04       1.581447662599e+03 
       8.165644720543e-04       1.953165774488e+03 
       1.027993764237e-03       2.402972593789e+03 
       1.294167472965e-03       2.941553969525e+03 
       1.629260318832e-03       3.577581189396e+03 
       2.051117217806e-03       4.315112878164e+03 
       2.582203588065e-03       5.150341565613e+03 
       3.250801715441e-03       6.067550149007e+03 
       4.092516888272e-03       7.034122499474e+03 
       5.152173508843e-03       7.995891589721e+03 
       6.486202156255e-03       8.871984738647e+03 
       8.165644720543e-03       9.553014101144e+03 
       1.027993764237e-02       9.902122954803e+03 
       1.294167472963e-02       9.769069339323e+03 
       1.629260307071e-02       9.034225619807e+03 
       2.051108035595e-02       7.701356152418e+03 
       2.580906243218e-02       6.020342516200e+03 
       3.206822354456e-02       4.550283181207e+03 
       3.737768763003e-02       3.807108219452e+03 
       4.122261402654e-02       3.484442113776e+03 
       4.438809008447e-02       3.302381560359e+03 
       4.721194768137e-02       3.172407444393e+03 
       4.984433933938e-02       3.059009048465e+03 
       5.236455201581e-02       2.944766745025e+03 
       5.482004674711e-02       2.820887598574e+03 
       5.724195949715e-02       2.683657147364e+03 
       5.965221176959e-02       2.533039093328e+03 
       6.206714507655e-02       2.371601532611e+03 
       6.449953821291e-02       2.203834569889e+03 
       6.695980148660e-02       2.035384514884e+03 
       6.945672115492e-02       1.872286653823e+03 
       7.199794340622e-02       1.720192039955e+03 
       7.459030010091e-02       1.583869414543e+03 
       7.724003437803e-02       1.466602588208e+03 
       7.995296063427e-02       1.370075651771e+03 
       8.273458015051e-02       1.294182703727e+03 
       8.559016592180e-02       1.237128170619e+03 
       8.852482558803e-02       1.195449413326e+03 
       9.154354846824e-02       1.164276356151e+03 
       9.465124086073e-02       1.137765431935e+03 
       9.785275257670e-02       1.109682123239e+03 
       1.011528968895e-01       1.074425790404e+03 
       1.045564655602e-01       1.028149861894e+03 
       1.080682402518e-01       9.697606193418e+02 
       1.116930014150e-01       9.013780768536e+02 
       1.154355355749e-01       8.278464532594e+02 
       1.193006418499e-01       7.554675024262e+02 
       1.232931384718e-01       6.904570516639e+02 
       1.274178700361e-01       6.372723613703e+02 
       1.316797161861e-01       5.976694980903e+02 
       1.360836024225e-01       5.704382508017e+02 
       1.406345137128e-01       5.515994074359e+02 
       1.453375115775e-01       5.356758931429e+02 
       1.501977553162e-01       5.167306376022e+02 
       1.552205280484e-01       4.905318595992e+02 
       1.604112682470e-01       4.568331530242e+02 
       1.657756074721e-01       4.191452665504e+02 
       1.713194150560e-01       3.828287145741e+02 
       1.770488505667e-01       3.522331474627e+02 
       1.829704249926e-01       3.293843231813e+02 
       1.890910717597e-01       3.133397264337e+02 
       1.954182289305e-01       3.004434302592e+02 
       2.019599342622e-01       2.863411340152e+02 
       2.087249352398e-01       2.686851942078e+02 
       2.157228167888e-01       2.481724736993e+02 
       2.229641501508e-01       2.278933234068e+02 
       2.304606674309e-01       2.109946581838e+02 
       2.382254676897e-01       1.981328338806e+02 
       2.462732622674e-01       1.875436050517e+02 
       2.546206694601e-01       1.767463506857e+02 
       2.632865719719e-01       1.644639395630e+02 
       2.722925550955e-01       1.517737340419e+02 
       2.816634498706e-01       1.404364781394e+02 
       2.914280143535e-01       1.311280162077e+02 
       3.016197988560e-01       1.227478466693e+02 
       3.122782595653e-01       1.141535099750e+02 
       3.234502124977e-01       1.053847829482e+02 
       3.351917614676e-01       9.730523296586e+01 
       3.475708983856e-01       9.015379367752e+01 
       3.606710767741e-01       8.340260259945e+01 
       3.745962266518e-01       7.664647227909e+01 
       3.894779600347e-01       7.024814451068e+01 
       4.054862049673e-01       6.437932198564e+01 
       4.228453885906e-01       5.865855644926e+01 
       4.418599543150e-01       5.313921590238e+01 
       4.629562958174e-01       4.789932847758e+01 
       4.867550991743e-01       4.276958511164e+01 
       5.142034987966e-01       3.778106546660e+01 
       5.468332937839e-01       3.283328776505e+01 
       5.873056839600e-01       2.787532577497e+01 
       6.406533083729e-01       2.280225088896e+01 
       7.172161035027e-01       1.752545302719e+01 
       8.381401692994e-01       1.213656251131e+01 
       1.030886620412e+00       7.397720923253e+00 
       1.295540515501e+00       4.247050248129e+00 
       1.630944807839e+00       2.408538384815e+00 
       2.053237695488e+00       1.355774139730e+00 
       2.584873111212e+00       7.580788523659e-01 
       3.254162445968e+00       4.212936278948e-01 
       4.096747797336e+00       2.328264855624e-01 
       5.157499907778e+00       1.280132411788e-01 
       6.492907695227e+00       7.005326893782e-02 
       8.174086493956e+00       3.816719390801e-02 
       1.029056520544e+01       2.071088470084e-02 
