# Matter power spectrum P(k) at redshift z=2
# for k=1.0608e-05 to 10.6219 h/Mpc,
# number of wavenumbers equal to 122
#    1:k (h/Mpc)              2:P (Mpc/h)^3        
       1.060795538946e-05       6.921381331358e+00 
       1.335462460697e-05       8.668859939716e+00 
       1.681247628269e-05       1.085752279539e+01 
       2.116565362747e-05       1.359874274609e+01 
       2.664597920885e-05       1.703199969246e+01 
       3.354530034816e-05       2.133195650433e+01 
       4.223103105457e-05       2.671731650176e+01 
       5.316571816086e-05       3.346188472609e+01 
       6.693167362900e-05       4.190836261013e+01 
       8.426198478546e-05       5.248551630943e+01 
       1.060795538946e-04       6.572945758852e+01 
       1.335462460697e-04       8.230985300045e+01 
       1.681247628269e-04       1.030619002159e+02 
       2.116565362747e-04       1.290246992668e+02 
       2.664597920885e-04       1.614861043292e+02 
       3.354530034816e-04       2.020328434264e+02 
       4.223103105457e-04       2.526022209524e+02 
       5.316571816086e-04       3.155275861830e+02 
       6.693167362900e-04       3.935642222607e+02 
       8.426198478546e-04       4.898775192545e+02 
       1.060795538946e-03       6.079755125451e+02 
       1.335462460697e-03       7.515693896345e+02 
       1.681247628269e-03       9.243149354644e+02 
       2.116565362747e-03       1.129302989022e+03 
       2.664597920885e-03       1.368215774081e+03 
       3.354530034816e-03       1.640283612246e+03 
       4.223103105457e-03       1.941012005857e+03 
       5.316571816086e-03       2.260794417753e+03 
       6.693167362900e-03       2.582216559233e+03 
       8.426198478546e-03       2.884775968108e+03 
       1.060795538946e-02       3.137400377155e+03 
       1.335462460697e-02       3.305076157636e+03 
       1.681247628269e-02       3.351167566892e+03 
       2.116565360716e-02       3.245779398609e+03 
       2.664595282773e-02       2.980556528621e+03 
       3.353965409612e-02       2.588986273071e+03 
       4.195617274430e-02       2.163518069168e+03 
       4.992310279948e-02       1.857812856397e+03 
       5.562430117389e-02       1.687491159216e+03 
       6.017538614906e-02       1.570563273601e+03 
       6.416962278355e-02       1.476628007140e+03 
       6.785848712300e-02       1.394363801580e+03 
       7.136950103391e-02       1.318806844059e+03 
       7.477682795856e-02       1.247629073235e+03 
       7.812808572602e-02       1.179819909412e+03 
       8.145623707637e-02       1.115147835593e+03 
       8.478551488851e-02       1.053687409525e+03 
       8.813464724589e-02       9.957509460014e+02 
       9.151873742073e-02       9.416668601689e+02 
       9.495042127065e-02       8.916995626340e+02 
       9.844061205950e-02       8.459558023413e+02 
       1.019989975472e-01       8.043595611699e+02 
       1.056343818826e-01       7.666050854403e+02 
       1.093549266614e-01       7.321830886747e+02 
       1.131683243588e-01       7.004168326024e+02 
       1.170819251204e-01       6.705349177226e+02 
       1.211028305823e-01       6.417600935812e+02 
       1.252379638799e-01       6.133961984920e+02 
       1.294941221484e-01       5.849962178057e+02 
       1.338780159769e-01       5.563350185627e+02 
       1.383962990708e-01       5.275153547340e+02 
       1.430555905737e-01       4.989193685350e+02 
       1.478624919678e-01       4.710947365785e+02 
       1.528236001191e-01       4.446399831432e+02 
       1.579455177945e-01       4.200436837788e+02 
       1.632348628310e-01       3.975503101038e+02 
       1.686982770343e-01       3.771126748025e+02 
       1.743424358264e-01       3.583846208093e+02 
       1.801740596215e-01       3.408606626168e+02 
       1.861999278851e-01       3.239990605589e+02 
       1.924268968177e-01       3.073850591200e+02 
       1.988619215909e-01       2.908884918351e+02 
       2.055120840593e-01       2.746421316971e+02 
       2.123846268724e-01       2.588978795151e+02 
       2.194869949192e-01       2.440713999643e+02 
       2.268268850713e-01       2.304183790233e+02 
       2.344123052389e-01       2.178396116590e+02 
       2.422516438515e-01       2.061149845081e+02 
       2.503537510143e-01       1.949720244135e+02 
       2.587280328072e-01       1.841717616604e+02 
       2.673845604899e-01       1.737279195105e+02 
       2.763341967981e-01       1.638132636912e+02 
       2.855887420725e-01       1.544675708120e+02 
       2.951611037221e-01       1.456724047846e+02 
       3.050654935141e-01       1.374559719518e+02 
       3.153176585072e-01       1.297092299762e+02 
       3.259351531884e-01       1.223059820557e+02 
       3.369376626940e-01       1.152782824372e+02 
       3.483473901078e-01       1.086162605104e+02 
       3.601895250275e-01       1.023277595671e+02 
       3.724928163440e-01       9.641014736887e+01 
       3.852902801375e-01       9.078971000024e+01 
       3.986200847838e-01       8.547575803364e+01 
       4.125266713270e-01       8.041204962867e+01 
       4.270621903350e-01       7.562609378969e+01 
       4.422883706714e-01       7.108533643013e+01 
       4.582789871744e-01       6.677411022348e+01 
       4.751231736077e-01       6.265746862647e+01 
       4.929299524039e-01       5.875068250596e+01 
       5.118345552924e-01       5.501559528874e+01 
       5.320074465619e-01       5.144065793759e+01 
       5.536675423030e-01       4.801648018624e+01 
       5.771021584958e-01       4.471850257927e+01 
       6.026981582368e-01       4.152878145977e+01 
       6.309925552461e-01       3.842645239614e+01 
       6.627586438074e-01       3.538683237995e+01 
       6.991608615918e-01       3.237853145696e+01 
       7.420518045910e-01       2.936291088121e+01 
       7.945859477528e-01       2.628597817513e+01 
       8.625924047014e-01       2.307112572177e+01 
       9.578215280613e-01       1.961038262063e+01 
       1.104824674046e+00       1.582215745218e+01 
       1.342751869424e+00       1.194989984052e+01 
       1.683611028467e+00       8.763069414914e+00 
       2.119343194404e+00       6.466812405317e+00 
       2.668093819021e+00       4.795347901616e+00 
       3.358931108707e+00       3.546981814487e+00 
       4.228643729217e+00       2.598099785142e+00 
       5.323547048136e+00       1.872387614245e+00 
       6.701948659780e+00       1.320696673371e+00 
       8.437253476337e+00       9.084009705451e-01 
       1.062187280711e+01       6.080169622578e-01 
