# Matter power spectrum P(k) at redshift z=1.5
# for k=1.03163e-05 to 10.3308 h/Mpc,
# number of wavenumbers equal to 122
#    1:k (h/Mpc)              2:P (Mpc/h)^3        
       1.031625923138e-05       8.167371316766e+00 
       1.298740090104e-05       1.023650997824e+01 
       1.635016902748e-05       1.282984262606e+01 
       2.058364327582e-05       1.608015997654e+01 
       2.591327158724e-05       2.015388639257e+01 
       3.262287610390e-05       2.525959487452e+01 
       4.106976773301e-05       3.165865885074e+01 
       5.170377425557e-05       3.967860281475e+01 
       6.509119529601e-05       4.972979306163e+01 
       8.194495984220e-05       6.232628629533e+01 
       1.031625923138e-04       7.811183890511e+01 
       1.298740090104e-04       9.789224072798e+01 
       1.635016902748e-04       1.226753361883e+02 
       2.058364327582e-04       1.537201980163e+02 
       2.591327158724e-04       1.925968642082e+02 
       3.262287610390e-04       2.412576270351e+02 
       4.106976773301e-04       3.021198142395e+02 
       5.170377425557e-04       3.781580147130e+02 
       6.509119529601e-04       4.730007492380e+02 
       8.194495984220e-04       5.910232430783e+02 
       1.031625923138e-03       7.374244505857e+02 
       1.298740090104e-03       9.182653008045e+02 
       1.635016902748e-03       1.140359116066e+03 
       2.058364327582e-03       1.411147573225e+03 
       2.591327158724e-03       1.738023995099e+03 
       3.262287610390e-03       2.127435747656e+03 
       4.106976773301e-03       2.579328193401e+03 
       5.170377425557e-03       3.098930162020e+03 
       6.509119529601e-03       3.674522648271e+03 
       8.194495984220e-03       4.284784583271e+03 
       1.031625923138e-02       4.890741915526e+03 
       1.298740090104e-02       5.431887678001e+03 
       1.635016902481e-02       5.825331334882e+03 
       2.058363789658e-02       5.978900738757e+03 
       2.591162385826e-02       5.829483072442e+03 
       3.251456462593e-02       5.412345757748e+03 
       3.931590615055e-02       4.959622840506e+03 
       4.426571738604e-02       4.678567499148e+03 
       4.810494227308e-02       4.490227048914e+03 
       5.142227507852e-02       4.341602095955e+03 
       5.445948068017e-02       4.210982007644e+03 
       5.733481499864e-02       4.087756308528e+03 
       6.011530797048e-02       3.966032658668e+03 
       6.284319095029e-02       3.842533730013e+03 
       6.554727121306e-02       3.715742866361e+03 
       6.824847471748e-02       3.585421874821e+03 
       7.096281185058e-02       3.452299767080e+03 
       7.370308318293e-02       3.317823811041e+03 
       7.647991833594e-02       3.183980442130e+03 
       7.930243866278e-02       3.053000238916e+03 
       8.217869631729e-02       2.927230496770e+03 
       8.511597443180e-02       2.808592154825e+03 
       8.812099772145e-02       2.698691566197e+03 
       9.120008340299e-02       2.598330896837e+03 
       9.435925118473e-02       2.507522164547e+03 
       9.760430446912e-02       2.425372054571e+03 
       1.009408908546e-01       2.350154621434e+03 
       1.043745474702e-01       2.279420882923e+03 
       1.079107350368e-01       2.210415112502e+03 
       1.115548634724e-01       2.140329108624e+03 
       1.153123111542e-01       2.066940279027e+03 
       1.191884394706e-01       1.989023646164e+03 
       1.231886039899e-01       1.906683932511e+03 
       1.273181633556e-01       1.821443107030e+03 
       1.315824868902e-01       1.735930526243e+03 
       1.359869617951e-01       1.653277735458e+03 
       1.405370007840e-01       1.576398903826e+03 
       1.452380509498e-01       1.507327537273e+03 
       1.500956046443e-01       1.446293032810e+03 
       1.551152131368e-01       1.392124032809e+03 
       1.603025038063e-01       1.341995021616e+03 
       1.656632016188e-01       1.292872888228e+03 
       1.712031556368e-01       1.242019756708e+03 
       1.769283713196e-01       1.188010347937e+03 
       1.828450493861e-01       1.131685526897e+03 
       1.889596320577e-01       1.075743070788e+03 
       1.952788575610e-01       1.023199732368e+03 
       2.018098238776e-01       9.759390078796e+02 
       2.085600628899e-01       9.341544291550e+02 
       2.155376262942e-01       8.963372914564e+02 
       2.227511849730e-01       8.599602886842e+02 
       2.302101439431e-01       8.228864464278e+02 
       2.379247755741e-01       7.847376137382e+02 
       2.459063745312e-01       7.468127087347e+02 
       2.541674389084e-01       7.110771661433e+02 
       2.627218833474e-01       6.788222101570e+02 
       2.715852917143e-01       6.495142857901e+02 
       2.807752192696e-01       6.215126953049e+02 
       2.903115574651e-01       5.935766326410e+02 
       3.002169788571e-01       5.656975113375e+02 
       3.105174856465e-01       5.390093247876e+02 
       3.212430937855e-01       5.142842689930e+02 
       3.324286965790e-01       4.912447310025e+02 
       3.441151690384e-01       4.689160774178e+02 
       3.563507997416e-01       4.469253117495e+02 
       3.691931752043e-01       4.257162665352e+02 
       3.827117003783e-01       4.056909475352e+02 
       3.969910308037e-01       3.865360856464e+02 
       4.121358398506e-01       3.678613128262e+02 
       4.282775893903e-01       3.496803655371e+02 
       4.455843909712e-01       3.321766238829e+02 
       4.642757867725e-01       3.151458896759e+02 
       4.846456498662e-01       2.983778249682e+02 
       5.070990528949e-01       2.819161104066e+02 
       5.322143543968e-01       2.655587118010e+02 
       5.608534341732e-01       2.491338563200e+02 
       5.943700156543e-01       2.324086771486e+02 
       6.350329567896e-01       2.150288307238e+02 
       6.869573550223e-01       1.964523576883e+02 
       7.582925281482e-01       1.758504385255e+02 
       8.661323149909e-01       1.521083846488e+02 
       1.040994290416e+00       1.250674900214e+02 
       1.300881081722e+00       9.872518584520e+01 
       1.637321482821e+00       7.664204761592e+01 
       2.061262277309e+00       5.833459467823e+01 
       2.594975456458e+00       4.316142951448e+01 
       3.266880545116e+00       3.084476905103e+01 
       4.112758935542e+00       2.123014541021e+01 
       5.177656736538e+00       1.409658101069e+01 
       6.518283639175e+00       9.072948137158e+00 
       8.206032914639e+00       5.693103765457e+00 
       1.033078336626e+01       3.501655649516e+00 
