# Matter power spectrum P(k) at redshift z=2.5
# for k=1.02093e-05 to 10.2234 h/Mpc,
# number of wavenumbers equal to 122
#    1:k (h/Mpc)              2:P (Mpc/h)^3        
       1.020932608477e-05       1.025844194174e+01 
       1.285278004541e-05       1.272304319253e+01 
       1.618069141137e-05       1.577975988608e+01 
       2.037028359817e-05       1.957083715018e+01 
       2.564466766719e-05       2.427268600522e+01 
       3.228472380324e-05       3.010407901519e+01 
       4.064405920865e-05       3.733631229427e+01 
       5.116783897624e-05       4.630577846243e+01 
       6.441649275378e-05       5.742953682539e+01 
       8.109555966639e-05       7.122454209104e+01 
       1.020932608477e-04       8.833135443006e+01 
       1.285278004541e-04       1.095432612085e+02 
       1.618069141137e-04       1.358418602635e+02 
       2.037028359817e-04       1.684401353209e+02 
       2.564466766719e-04       2.088338719080e+02 
       3.228472380324e-04       2.588616311112e+02 
       4.064405920866e-04       3.207721423425e+02 
       5.116783897624e-04       3.972954929999e+02 
       6.441649275378e-04       4.917107013233e+02 
       8.109555966639e-04       6.078978523723e+02 
       1.020932608477e-03       7.503598701185e+02 
       1.285278004541e-03       9.241963831577e+02 
       1.618069141137e-03       1.134949963490e+03 
       2.037028359817e-03       1.388402905769e+03 
       2.564466766719e-03       1.689874539994e+03 
       3.228472380324e-03       2.043270168186e+03 
       4.064405920866e-03       2.449672836807e+03 
       5.116783897624e-03       2.905268321129e+03 
       6.441649275378e-03       3.398613519067e+03 
       8.109555966639e-03       3.907363102322e+03 
       1.020932608477e-02       4.394175761925e+03 
       1.285278004541e-02       4.804478344946e+03 
       1.618069140978e-02       5.067382553466e+03 
       2.037027997882e-02       5.108521655698e+03 
       2.564343922001e-02       4.884049063642e+03 
       3.219683038482e-02       4.438375390988e+03 
       3.909102670032e-02       3.984014472108e+03 
       4.415802721356e-02       3.711218971118e+03 
       4.805513143586e-02       3.534930803886e+03 
       5.140649661330e-02       3.399215758929e+03 
       5.446685502064e-02       3.282137711708e+03 
       5.735950435687e-02       3.173187322837e+03 
       6.015380899292e-02       3.066696759939e+03 
       6.289323172113e-02       2.959577047035e+03 
       6.560729438660e-02       2.850364914547e+03 
       6.831736854385e-02       2.738764829596e+03 
       7.103975854801e-02       2.625359640448e+03 
       7.378746794800e-02       2.511382771367e+03 
       7.657127195244e-02       2.398509987541e+03 
       7.940039981529e-02       2.288630665249e+03 
       8.228298601963e-02       2.183629659065e+03 
       8.522637820683e-02       2.085161750570e+03 
       8.823735291329e-02       1.994447963152e+03 
       9.132226998953e-02       1.912108946702e+03 
       9.448718503982e-02       1.838061237098e+03 
       9.773793237787e-02       1.771473601406e+03 
       1.010801868069e-01       1.710819451531e+03 
       1.045195099007e-01       1.654018142409e+03 
       1.080613847724e-01       1.598689004333e+03 
       1.117112422126e-01       1.542499177269e+03 
       1.154744803483e-01       1.483585722098e+03 
       1.193564794902e-01       1.420950531228e+03 
       1.233626135089e-01       1.354732344976e+03 
       1.274982588703e-01       1.286231097624e+03 
       1.317688023160e-01       1.217651517745e+03 
       1.361796480891e-01       1.151606311185e+03 
       1.407362255435e-01       1.090486566874e+03 
       1.454439979446e-01       1.035838668977e+03 
       1.503084732428e-01       9.879056007143e+02 
       1.553352175890e-01       9.455605762974e+02 
       1.605298723507e-01       9.065331491349e+02 
       1.658981753825e-01       8.682690318831e+02 
       1.714459873009e-01       8.286028528010e+02 
       1.771793235226e-01       7.864024814231e+02 
       1.831043928412e-01       7.423924791835e+02 
       1.892276433577e-01       6.987648189806e+02 
       1.955558166427e-01       6.579763801839e+02 
       2.020960111150e-01       6.214937135979e+02 
       2.088557557748e-01       5.894176661489e+02 
       2.158430956555e-01       5.605203750533e+02 
       2.230666906652e-01       5.327946346406e+02 
       2.305359299165e-01       5.045403037046e+02 
       2.382610642055e-01       4.754780087532e+02 
       2.462533600555e-01       4.466609373724e+02 
       2.545252797350e-01       4.196292741944e+02 
       2.630906929776e-01       3.953815540601e+02 
       2.719651278744e-01       3.734886637630e+02 
       2.811660707486e-01       3.526409490453e+02 
       2.907133279669e-01       3.318972923237e+02 
       3.006294669333e-01       3.112538775694e+02 
       3.109403594311e-01       2.915920099991e+02 
       3.216758587691e-01       2.735058748573e+02 
       3.328706539525e-01       2.567664912320e+02 
       3.445653611043e-01       2.406285500003e+02 
       3.568079373409e-01       2.248092828020e+02 
       3.696555397430e-01       2.096595953096e+02 
       3.831770093418e-01       1.954746835578e+02 
       3.974562497443e-01       1.820193292432e+02 
       4.125969141264e-01       1.690077529390e+02 
       4.287290525143e-01       1.564535739572e+02 
       4.460187776921e-01       1.445009415518e+02 
       4.646827267939e-01       1.330095729710e+02 
       4.850104191053e-01       1.218343148001e+02 
       5.074001621505e-01       1.110314572948e+02 
       5.324193410296e-01       1.004783570647e+02 
       5.609110957942e-01       9.009134173383e+01 
       5.941951068335e-01       7.977410877096e+01 
       6.344736881077e-01       6.937343613171e+01 
       6.857208204487e-01       5.869261196360e+01 
       7.557658539584e-01       4.748500087681e+01 
       8.610223260191e-01       3.559366701158e+01 
       1.031516588260e+00       2.369565036539e+01 
       1.287441072124e+00       1.422953910913e+01 
       1.620295674882e+00       8.287664867273e+00 
       2.039826716156e+00       4.773204606169e+00 
       2.567989681038e+00       2.723297968471e+00 
       3.232907466683e+00       1.540622575377e+00 
       4.069989363786e+00       8.648830888329e-01 
       5.123813035802e+00       4.821635683861e-01 
       6.450498436053e+00       2.671045221375e-01 
       8.120696399886e+00       1.471153647183e-01 
       1.022335105928e+01       8.060081035661e-02 
