# Matter power spectrum P(k) at redshift z=2.5
# for k=9.78505e-06 to 12.3361 h/Mpc,
# number of wavenumbers equal to 123
#    1:k (h/Mpc)              2:P (Mpc/h)^3        
       9.785048993054e-06       8.903178710869e+00 
       1.231864683301e-05       1.104826679378e+01 
       1.550825753699e-05       1.371016542725e+01 
       1.952373950597e-05       1.701337044535e+01 
       2.457893179731e-05       2.111235379655e+01 
       3.094304183439e-05       2.619876423929e+01 
       3.895498168352e-05       3.251034078167e+01 
       4.904141635736e-05       4.034194364841e+01 
       6.173948528266e-05       5.005915500856e+01 
       7.772540693343e-05       6.211501541420e+01 
       9.785048993054e-05       7.707049434813e+01 
       1.231864683301e-04       9.561931513632e+01 
       1.550825753699e-04       1.186176523243e+02 
       1.952373950597e-04       1.471188277259e+02 
       2.457893179731e-04       1.824122690934e+02 
       3.094304183439e-04       2.260641969334e+02 
       3.895498168352e-04       2.799542231053e+02 
       4.904141635736e-04       3.462967986017e+02 
       6.173948528266e-04       4.276296961316e+02 
       7.772540693343e-04       5.267467883972e+02 
       9.785048993054e-04       6.465563567584e+02 
       1.231864683301e-03       7.898595139765e+02 
       1.550825753699e-03       9.590260409184e+02 
       1.952373950597e-03       1.155437970509e+03 
       2.457893179731e-03       1.378578974397e+03 
       3.094304183439e-03       1.625031390544e+03 
       3.895498168352e-03       1.887485448566e+03 
       4.904141635736e-03       2.153802363238e+03 
       6.173948528266e-03       2.406544150983e+03 
       7.772540693343e-03       2.623293739061e+03 
       9.785048993054e-03       2.777502026065e+03 
       1.231864683301e-02       2.841217840669e+03 
       1.550825753699e-02       2.788529797355e+03 
       1.952373950158e-02       2.602781043365e+03 
       2.457892363051e-02       2.288815969591e+03 
       3.094069563977e-02       1.888473183811e+03 
       3.880874731596e-02       1.488849419976e+03 
       4.680101350367e-02       1.212772081400e+03 
       5.258837441722e-02       1.074162796456e+03 
       5.710084658285e-02       9.876907080375e+02 
       6.101125078742e-02       9.213377689239e+02 
       6.459719300012e-02       8.641735345745e+02 
       6.799534918509e-02       8.116642971828e+02 
       7.128355206427e-02       7.618256971925e+02 
       7.451100685559e-02       7.139099714951e+02 
       7.771136673114e-02       6.678267695972e+02 
       8.090913022679e-02       6.238467738362e+02 
       8.412307483889e-02       5.823924626895e+02 
       8.736823663866e-02       5.439103725003e+02 
       9.065711826547e-02       5.087686085250e+02 
       9.400046070847e-02       4.771904534406e+02 
       9.740775532766e-02       4.492066981313e+02 
       1.008875942835e-01       4.246372205127e+02 
       1.044479166158e-01       4.030940326524e+02 
       1.080961847098e-01       3.840118834188e+02 
       1.118395129767e-01       3.667043822181e+02 
       1.156847628957e-01       3.504288350636e+02 
       1.196386138449e-01       3.344913656241e+02 
       1.237076161859e-01       3.183432759314e+02 
       1.278982311475e-01       3.016662488653e+02 
       1.322168608105e-01       2.844221646239e+02 
       1.366698706640e-01       2.668627958371e+02 
       1.412636066527e-01       2.494523124988e+02 
       1.460044082726e-01       2.327638416910e+02 
       1.508986190223e-01       2.173222000951e+02 
       1.559525953671e-01       2.034873039466e+02 
       1.611727152633e-01       1.913511201298e+02 
       1.665653872325e-01       1.807200256190e+02 
       1.721370609311e-01       1.711861827775e+02 
       1.778942401375e-01       1.622465595704e+02 
       1.838434990623e-01       1.534384296441e+02 
       1.899915028755e-01       1.444995953824e+02 
       1.963450333395e-01       1.354460895071e+02 
       2.029110204332e-01       1.264446005994e+02 
       2.096965808636e-01       1.179009607561e+02 
       2.167090643831e-01       1.101301388309e+02 
       2.239561088791e-01       1.031765615674e+02 
       2.314457052836e-01       9.692319924943e+01 
       2.391862734763e-01       9.111768937815e+01 
       2.471867505492e-01       8.549737489685e+01 
       2.554566930704e-01       7.999277005088e+01 
       2.640063953628e-01       7.470838880616e+01 
       2.728470263297e-01       6.971014256000e+01 
       2.819907880425e-01       6.504789146556e+01 
       2.914511002227e-01       6.078239924840e+01 
       3.012428159533e-01       5.683292864229e+01 
       3.113824755514e-01       5.307778462762e+01 
       3.218886076560e-01       4.950730045547e+01 
       3.327820894159e-01       4.611521540934e+01 
       3.440865814912e-01       4.293557010913e+01 
       3.558290588029e-01       3.998277008516e+01 
       3.680404651770e-01       3.720502918976e+01 
       3.807565301457e-01       3.459803608865e+01 
       3.940188005485e-01       3.211733853962e+01 
       4.078759603877e-01       2.978979909088e+01 
       4.223855430314e-01       2.760452642822e+01 
       4.376161858541e-01       2.555016949663e+01 
       4.536506479484e-01       2.359709928630e+01 
       4.705899222693e-01       2.176255228453e+01 
       4.885589519347e-01       2.002553590528e+01 
       5.077147560914e-01       1.837765570278e+01 
       5.282582769535e-01       1.681755411608e+01 
       5.504521581564e-01       1.533135246899e+01 
       5.746483261998e-01       1.391224929284e+01 
       6.013324657651e-01       1.255098383833e+01 
       6.311990543867e-01       1.123849436347e+01 
       6.652848792788e-01       9.962843358299e+00 
       7.052220054935e-01       8.710580323870e+00 
       7.537532918327e-01       7.466205208474e+00 
       8.158697519055e-01       6.207983507013e+00 
       9.014871569473e-01       4.912094359439e+00 
       1.031404997273e+00       3.570931371614e+00 
       1.242135716477e+00       2.287895357787e+00 
       1.553339012229e+00       1.330006475725e+00 
       1.955140526362e+00       7.556280370524e-01 
       2.461372893943e+00       4.262387901679e-01 
       3.098684879810e+00       2.389433917891e-01 
       3.901013138334e+00       1.331701899688e-01 
       4.911084571592e+00       7.380825742421e-02 
       6.182689166647e+00       4.069131560850e-02 
       7.783544505116e+00       2.231990131114e-02 
       9.798901971322e+00       1.218343343381e-02 
       1.233608669938e+01       6.619753581037e-03 
