# Matter power spectrum P(k) at redshift z=1
# for k=1.02085e-05 to 10.2202 h/Mpc,
# number of wavenumbers equal to 122
#    1:k (h/Mpc)              2:P (Mpc/h)^3        
       1.020851085915e-05       1.377210772606e+01 
       1.285175373716e-05       1.725876967916e+01 
       1.617939936583e-05       2.162812895637e+01 
       2.036865700921e-05       2.710363891756e+01 
       2.564261991301e-05       3.396529888427e+01 
       3.228214583347e-05       4.256395522728e+01 
       4.064081373700e-05       5.333920064638e+01 
       5.116375316950e-05       6.684175102103e+01 
       6.441134902785e-05       8.376142718181e+01 
       8.108908409910e-05       1.049620467003e+02 
       1.020851085915e-04       1.315248507977e+02 
       1.285175373716e-04       1.648023078276e+02 
       1.617939936583e-04       2.064843463564e+02 
       2.036865700921e-04       2.586790441208e+02 
       2.564261991301e-04       3.240093335541e+02 
       3.228214583347e-04       4.057259666044e+02 
       4.064081373700e-04       5.078342934583e+02 
       5.116375316950e-04       6.352279901335e+02 
       6.441134902785e-04       7.938172018171e+02 
       8.108908409910e-04       9.906331671709e+02 
       1.020851085915e-03       1.233884093057e+03 
       1.285175373716e-03       1.532907181330e+03 
       1.617939936583e-03       1.897858857723e+03 
       2.036865700921e-03       2.339043353402e+03 
       2.564261991301e-03       2.865727250779e+03 
       3.228214583347e-03       3.484181731458e+03 
       4.064081373700e-03       4.194942867523e+03 
       5.116375316950e-03       4.988938582028e+03 
       6.441134902785e-03       5.842612109883e+03 
       8.108908409910e-03       6.712068364658e+03 
       1.020851085915e-02       7.527203168549e+03 
       1.285175373716e-02       8.187769337835e+03 
       1.617939936556e-02       8.566717403717e+03 
       2.036865606906e-02       8.534407265508e+03 
       2.564216506717e-02       8.020073958062e+03 
       3.223863008295e-02       7.112417070697e+03 
       3.961429308909e-02       6.183019519888e+03 
       4.531024177884e-02       5.638199977299e+03 
       4.956745392575e-02       5.319832282098e+03 
       5.316507486298e-02       5.090069921566e+03 
       5.641933154006e-02       4.898937864589e+03 
       5.947778902661e-02       4.723698122505e+03 
       6.242129305004e-02       4.552821348332e+03 
       6.529953566097e-02       4.379927057000e+03 
       6.814577600576e-02       4.202285988447e+03 
       7.098380713916e-02       4.019562479602e+03 
       7.383160187089e-02       3.832957639489e+03 
       7.670337364951e-02       3.645114608661e+03 
       7.961081444656e-02       3.459515243031e+03 
       8.256387553522e-02       3.279765795216e+03 
       8.557128002727e-02       3.109580046841e+03 
       8.864087059886e-02       2.952072900280e+03 
       9.177985191662e-02       2.809426902094e+03 
       9.499496347047e-02       2.682802150347e+03 
       9.829260502596e-02       2.571823549756e+03 
       1.016789289629e-01       2.474811559987e+03 
       1.051599089327e-01       2.388814671466e+03 
       1.087413912436e-01       2.309867778248e+03 
       1.124291334504e-01       2.233388763826e+03 
       1.162288333629e-01       2.154948218747e+03 
       1.201461508604e-01       2.071072867462e+03 
       1.241867243421e-01       1.979802794450e+03 
       1.283561832795e-01       1.881329197079e+03 
       1.326601580899e-01       1.778194946239e+03 
       1.371042883910e-01       1.674478844238e+03 
       1.416942305932e-01       1.574999849427e+03 
       1.464356657196e-01       1.484148105286e+03 
       1.513343083047e-01       1.404776423243e+03 
       1.563959171943e-01       1.337241431081e+03 
       1.616263090558e-01       1.279493320410e+03 
       1.670313753949e-01       1.227456682928e+03 
       1.726171038681e-01       1.176365074438e+03 
       1.783896046781e-01       1.122386087798e+03 
       1.843551428438e-01       1.063427207625e+03 
       1.905201771522e-01       1.000672320085e+03 
       1.968914066352e-01       9.379362576929e+02 
       2.034758254750e-01       8.796794001414e+02 
       2.102807873438e-01       8.285490385288e+02 
       2.173140803303e-01       7.846941186529e+02 
       2.245840138287e-01       7.460515859068e+02 
       2.320995190675e-01       7.092375304685e+02 
       2.398702653717e-01       6.712538679332e+02 
       2.479067948153e-01       6.314326908922e+02 
       2.562206786608e-01       5.915733772482e+02 
       2.648246999707e-01       5.542999665373e+02 
       2.737330680775e-01       5.213387090900e+02 
       2.829616723242e-01       4.921394699424e+02 
       2.925283847938e-01       4.644979288576e+02 
       3.024534248456e-01       4.367987719051e+02 
       3.127598024921e-01       4.090007876803e+02 
       3.234738634560e-01       3.824778964868e+02 
       3.346259668429e-01       3.582965190553e+02 
       3.462513378345e-01       3.361270875852e+02 
       3.583911543108e-01       3.148139075120e+02 
       3.710939504780e-01       2.938248104235e+02 
       3.844174566401e-01       2.737362591670e+02 
       3.984310492002e-01       2.549980174337e+02 
       4.132190705953e-01       2.373035819557e+02 
       4.288854156817e-01       2.202327785133e+02 
       4.455600058624e-01       2.037550142742e+02 
       4.634081531952e-01       1.881053898737e+02 
       4.826444852932e-01       1.731317537723e+02 
       5.035543223912e-01       1.585833791936e+02 
       5.265277281782e-01       1.445564991688e+02 
       5.521161369113e-01       1.309031638807e+02 
       5.811314212074e-01       1.175018075298e+02 
       6.148298834407e-01       1.042550432699e+02 
       6.552787087807e-01       9.096120561266e+01 
       7.061453340107e-01       7.739779129499e+01 
       7.745279089602e-01       6.325394958297e+01 
       8.752195406234e-01       4.827657599704e+01 
       1.037055478661e+00       3.297581343333e+01 
       1.287537605145e+00       2.009218989751e+01 
       1.619805634245e+00       1.175322900219e+01 
       2.039200072540e+00       6.797702181932e+00 
       2.567200756760e+00       3.897017710181e+00 
       3.231914269852e+00       2.216437285371e+00 
       4.068739003057e+00       1.251551256718e+00 
       5.122238924907e+00       7.021070834247e-01 
       6.448516747846e+00       3.915348424575e-01 
       8.118201602244e+00       2.171446897927e-01 
       1.022021029513e+01       1.198286826547e-01 
