# Matter power spectrum P(k) at redshift z=2
# for k=9.97417e-06 to 12.5699 h/Mpc,
# number of wavenumbers equal to 123
#    1:k (h/Mpc)              2:P (Mpc/h)^3        
       9.974169304674e-06       1.304776992683e+01 
       1.255673519919e-05       1.616462298356e+01 
       1.580799303143e-05       2.002601367680e+01 
       1.990108413674e-05       2.480977279022e+01 
       2.505398054199e-05       3.073619194714e+01 
       3.154109277091e-05       3.807813957185e+01 
       3.970788320505e-05       4.717358004952e+01 
       4.998926321540e-05       5.844104045376e+01 
       6.293275377873e-05       7.239868539727e+01 
       7.922764296623e-05       8.968779354621e+01 
       9.974169304674e-05       1.111015317051e+02 
       1.255673519919e-04       1.376199940988e+02 
       1.580799303143e-04       1.704524343210e+02 
       1.990108413674e-04       2.110873290131e+02 
       2.505398054199e-04       2.613501037038e+02 
       3.154109277091e-04       3.234666513984e+02 
       3.970788320505e-04       4.001275826982e+02 
       4.998926321540e-04       4.945430148590e+02 
       6.293275377873e-04       6.104710822729e+02 
       7.922764296623e-04       7.521980641055e+02 
       9.974169304674e-04       9.244486346113e+02 
       1.255673519919e-03       1.132204341967e+03 
       1.580799303143e-03       1.380362955242e+03 
       1.990108413674e-03       1.673058097861e+03 
       2.505398054199e-03       2.012556168182e+03 
       3.154109277091e-03       2.397880587045e+03 
       3.970788320505e-03       2.823042718770e+03 
       4.998926321540e-03       3.274974223047e+03 
       6.293275377873e-03       3.729471359162e+03 
       7.922764296623e-03       4.156770623694e+03 
       9.974169304674e-03       4.510305270480e+03 
       1.255673519919e-02       4.734647224271e+03 
       1.580799303141e-02       4.768624234517e+03 
       1.990108401467e-02       4.560586470909e+03 
       2.505388120140e-02       4.099292791850e+03 
       3.152657429794e-02       3.457087015763e+03 
       3.920059304230e-02       2.828125401441e+03 
       4.576860727821e-02       2.453586815644e+03 
       5.051541192429e-02       2.257980571796e+03 
       5.441402967776e-02       2.127186688614e+03 
       5.788750464376e-02       2.023015342814e+03 
       6.112309332842e-02       1.930279236973e+03 
       6.421935441421e-02       1.841746434282e+03 
       6.723514813428e-02       1.753973533600e+03 
       7.020902142362e-02       1.665575194647e+03 
       7.316807610262e-02       1.576474827916e+03 
       7.613249239280e-02       1.487461694919e+03 
       7.911803566592e-02       1.399877435085e+03 
       8.213753857927e-02       1.315332122404e+03 
       8.520182404191e-02       1.235435496800e+03 
       8.832030476428e-02       1.161637488413e+03 
       9.150138650346e-02       1.095012040174e+03 
       9.475274718999e-02       1.036128273824e+03 
       9.808153476630e-02       9.850014181791e+02 
       1.014945101233e-01       9.410080283380e+02 
       1.049981519368e-01       9.029955483673e+02 
       1.085987344238e-01       8.693274904802e+02 
       1.123023854504e-01       8.380692403652e+02 
       1.161151301402e-01       8.072486698318e+02 
       1.200429236520e-01       7.751189623535e+02 
       1.240916758247e-01       7.405191410599e+02 
       1.282672697363e-01       7.030500536610e+02 
       1.325755757992e-01       6.632781758821e+02 
       1.370224627240e-01       6.225591908677e+02 
       1.416138064965e-01       5.827458095580e+02 
       1.463554983912e-01       5.457083203367e+02 
       1.512534529661e-01       5.128812807894e+02 
       1.563136169344e-01       4.848828561050e+02 
       1.615419797785e-01       4.613725435978e+02 
       1.669445869540e-01       4.411555729248e+02 
       1.725275565140e-01       4.224765443399e+02 
       1.782970999825e-01       4.036012268464e+02 
       1.842595482937e-01       3.833548383382e+02 
       1.904213836225e-01       3.615719358503e+02 
       1.967892779408e-01       3.390840193260e+02 
       2.033701391659e-01       3.173359044097e+02 
       2.101711658213e-01       2.977359828087e+02 
       2.171999112239e-01       2.808614355302e+02 
       2.244643583502e-01       2.662855515013e+02 
       2.319730067408e-01       2.530039462962e+02 
       2.397349730932e-01       2.400585203280e+02 
       2.477601075895e-01       2.268044276653e+02 
       2.560591285461e-01       2.132559379867e+02 
       2.646437786852e-01       2.001376930576e+02 
       2.735270072821e-01       1.881667266941e+02 
       2.827231836905e-01       1.775191352618e+02 
       2.922483494164e-01       1.678780666648e+02 
       3.021205181196e-01       1.586011724879e+02 
       3.123600358925e-01       1.493730419991e+02 
       3.229900181938e-01       1.404040300484e+02 
       3.340368853340e-01       1.319813544338e+02 
       3.455310260849e-01       1.242889723155e+02 
       3.575076298063e-01       1.171004214067e+02 
       3.700077429836e-01       1.101718989418e+02 
       3.830796286514e-01       1.034597452370e+02 
       3.967805406946e-01       9.713357675118e+01 
       4.111790757728e-01       9.119323388840e+01 
       4.263583441820e-01       8.554162471458e+01 
       4.424203255986e-01       8.011373270117e+01 
       4.594919787436e-01       7.492895301859e+01 
       4.777340150834e-01       6.998761414262e+01 
       4.973538391612e-01       6.524420207696e+01 
       5.186252272867e-01       6.065749407983e+01 
       5.419193306689e-01       5.622967762577e+01 
       5.677555751370e-01       5.191485252094e+01 
       5.968893695621e-01       4.768020617569e+01 
       6.304721161862e-01       4.348155749709e+01 
       6.703633574894e-01       3.925758151899e+01 
       7.197881355068e-01       3.492951087917e+01 
       7.848335206136e-01       3.038031332416e+01 
       8.779877800671e-01       2.545864288286e+01 
       1.024859038285e+00       2.010975888194e+01 
       1.259396819754e+00       1.488653017473e+01 
       1.582501760755e+00       1.082883956988e+01 
       1.992191729475e+00       7.940675054593e+00 
       2.508020555382e+00       5.844173982931e+00 
       3.157410810337e+00       4.285110236854e+00 
       3.974944704607e+00       3.107825584490e+00 
       5.004158899107e+00       2.215505298891e+00 
       6.299862802742e+00       1.544847301463e+00 
       7.931057373188e+00       1.050318368887e+00 
       9.984609669504e+00       6.952695077778e-01 
       1.256987883978e+01       4.481059717351e-01 
