# Matter power spectrum P(k) at redshift z=2
# for k=1.11577e-05 to 11.1691 h/Mpc,
# number of wavenumbers equal to 122
#    1:k (h/Mpc)              2:P (Mpc/h)^3        
       1.115770818184e-05       6.209304672799e+00 
       1.404672236750e-05       7.749119860115e+00 
       1.768377574087e-05       9.670778787842e+00 
       2.226255465665e-05       1.206896346920e+01 
       2.802689578871e-05       1.506182547700e+01 
       3.528377132211e-05       1.879679863172e+01 
       4.441963634134e-05       2.345783769719e+01 
       5.592100897277e-05       2.927444063670e+01 
       7.040037924900e-05       3.653286913397e+01 
       8.862882643651e-05       4.559007225849e+01 
       1.115770818184e-04       5.689093495544e+01 
       1.404672236750e-04       7.098950999619e+01 
       1.768377574087e-04       8.857497715285e+01 
       2.226255465665e-04       1.105029739956e+02 
       2.802689578871e-04       1.378326623933e+02 
       3.528377132211e-04       1.718691461553e+02 
       4.441963634134e-04       2.142093675029e+02 
       5.592100897277e-04       2.667870483992e+02 
       7.040037924900e-04       3.319086117836e+02 
       8.862882643651e-04       4.122684406995e+02 
       1.115770818184e-03       5.109304562918e+02 
       1.404672236750e-03       6.312616571886e+02 
       1.768377574087e-03       7.767817907525e+02 
       2.226255465665e-03       9.508350144117e+02 
       2.802689578871e-03       1.155993791215e+03 
       3.528377132211e-03       1.393273359687e+03 
       4.441963634134e-03       1.661041216732e+03 
       5.592100897277e-03       1.953654746542e+03 
       7.040037924900e-03       2.258037235356e+03 
       8.862882643651e-03       2.559107836948e+03 
       1.115770818184e-02       2.829034979308e+03 
       1.404672236750e-02       3.033395202132e+03 
       1.768377574084e-02       3.131840153941e+03 
       2.226255446692e-02       3.086313522834e+03 
       2.802675381251e-02       2.878936093163e+03 
       3.526439239815e-02       2.538885909844e+03 
       4.378279722277e-02       2.173028267831e+03 
       5.094365018728e-02       1.936915108800e+03 
       5.614070132440e-02       1.801530029347e+03 
       6.042976215367e-02       1.704864428921e+03 
       6.426085971861e-02       1.625099561493e+03 
       6.783485776605e-02       1.553274187550e+03 
       7.125817252600e-02       1.485126344743e+03 
       7.459465548677e-02       1.418577315908e+03 
       7.788626986844e-02       1.352748968382e+03 
       8.116260186713e-02       1.287548272921e+03 
       8.444573236778e-02       1.223337310288e+03 
       8.775294532236e-02       1.160786037297e+03 
       9.109833317515e-02       1.100707420111e+03 
       9.449379866185e-02       1.043897938750e+03 
       9.794970666635e-02       9.910547988271e+02 
       1.014753232579e-01       9.426588482174e+02 
       1.050791199429e-01       8.988992247203e+02 
       1.087689895147e-01       8.596402091908e+02 
       1.125524021200e-01       8.244107801647e+02 
       1.164365197916e-01       7.924384084300e+02 
       1.204282814309e-01       7.627253389970e+02 
       1.245344663324e-01       7.341827358991e+02 
       1.287617418623e-01       7.057581981519e+02 
       1.331166992977e-01       6.766231541513e+02 
       1.376058807713e-01       6.463243277063e+02 
       1.422357995690e-01       6.148642482671e+02 
       1.470129555536e-01       5.827431159828e+02 
       1.519438471815e-01       5.508243970676e+02 
       1.570349813725e-01       5.201522423663e+02 
       1.622928823605e-01       4.916645300179e+02 
       1.677241005681e-01       4.659819032673e+02 
       1.733352224956e-01       4.432040114795e+02 
       1.791328825812e-01       4.229402195017e+02 
       1.851237779687e-01       4.043742915827e+02 
       1.913146871064e-01       3.865069794662e+02 
       1.977124930869e-01       3.685073545339e+02 
       2.043242126405e-01       3.499714039521e+02 
       2.111570316894e-01       3.310083705658e+02 
       2.182183483929e-01       3.122991040983e+02 
       2.255158246413e-01       2.945962255755e+02 
       2.330574470240e-01       2.784907317303e+02 
       2.408515983974e-01       2.641007189975e+02 
       2.489071413395e-01       2.509756934417e+02 
       2.572335150077e-01       2.384863061397e+02 
       2.658408472427e-01       2.262361427740e+02 
       2.747400842095e-01       2.141085986689e+02 
       2.839431404677e-01       2.022182578877e+02 
       2.934630731696e-01       1.909407899022e+02 
       3.033142851452e-01       1.805590589625e+02 
       3.135127630427e-01       1.709940800678e+02 
       3.240763585542e-01       1.620042770488e+02 
       3.350251232408e-01       1.533303084471e+02 
       3.463817107995e-01       1.448849456271e+02 
       3.581718651392e-01       1.368426917590e+02 
       3.704250188304e-01       1.292918199840e+02 
       3.831750351208e-01       1.222260837733e+02 
       3.964611388788e-01       1.155195282840e+02 
       4.103290992714e-01       1.090672667638e+02 
       4.248327524191e-01       1.029016892628e+02 
       4.400359900540e-01       9.706792337406e+01 
       4.560153974772e-01       9.153147441632e+01 
       4.728638128574e-01       8.622803699850e+01 
       4.906952208487e-01       8.114779921453e+01 
       5.096516234599e-01       7.629202001002e+01 
       5.299129178382e-01       7.162892261714e+01 
       5.517114834883e-01       6.713438869612e+01 
       5.753543978063e-01       6.278523286128e+01 
       6.012584952414e-01       5.856253300673e+01 
       6.300080402013e-01       5.442925172059e+01 
       6.624543389018e-01       5.035295430391e+01 
       6.998979663354e-01       4.628810010520e+01 
       7.444453947369e-01       4.217139811921e+01 
       7.997626917936e-01       3.791791407008e+01 
       8.727966906135e-01       3.339839705843e+01 
       9.778409033610e-01       2.843908162016e+01 
       1.144040976119e+00       2.295130427580e+01 
       1.408425111753e+00       1.747542873879e+01 
       1.770231579501e+00       1.307772375247e+01 
       2.228535647673e+00       9.798429153710e+00 
       2.805559960194e+00       7.307421171275e+00 
       3.531990728098e+00       5.384886938868e+00 
       4.446512881824e+00       3.896456770880e+00 
       5.597828060798e+00       2.755036496844e+00 
       7.047247996593e+00       1.897022553238e+00 
       8.871959586127e+00       1.269556993908e+00 
       1.116913537539e+01       8.255169506243e-01 
