# Matter power spectrum P(k) at redshift z=1
# for k=1.02004e-05 to 10.2126 h/Mpc,
# number of wavenumbers equal to 122
#    1:k (h/Mpc)              2:P (Mpc/h)^3        
       1.020039974860e-05       1.872538900609e+01 
       1.284154245398e-05       2.333352389580e+01 
       1.616654412194e-05       2.907566068613e+01 
       2.035247321601e-05       3.623083237762e+01 
       2.562224572449e-05       4.514673321546e+01 
       3.225649624980e-05       5.625655837143e+01 
       4.060852282431e-05       7.010001812198e+01 
       5.112310131895e-05       8.734944856896e+01 
       6.436017138015e-05       1.088422610044e+02 
       8.102465525790e-05       1.356211976985e+02 
       1.020039974860e-04       1.689841428764e+02 
       1.284154245398e-04       2.105454833679e+02 
       1.616654412194e-04       2.623112323198e+02 
       2.035247321601e-04       3.267700278628e+02 
       2.562224572449e-04       4.070015906563e+02 
       3.225649624980e-04       5.068027171431e+02 
       4.060852282431e-04       6.308279134873e+02 
       5.112310131895e-04       7.847369451311e+02 
       6.436017138015e-04       9.753354845843e+02 
       8.102465525790e-04       1.210689246272e+03 
       1.020039974860e-03       1.500183942141e+03 
       1.284154245398e-03       1.854466093507e+03 
       1.616654412194e-03       2.285048347082e+03 
       2.035247321601e-03       2.803731671615e+03 
       2.562224572449e-03       3.421072608701e+03 
       3.225649624980e-03       4.144308822545e+03 
       4.060852282431e-03       4.974242860934e+03 
       5.112310131895e-03       5.888771890835e+03 
       6.436017138015e-03       6.879640471238e+03 
       8.102465525790e-03       7.887926142850e+03 
       1.020039974860e-02       8.831742803817e+03 
       1.284154245398e-02       9.592983837303e+03 
       1.616654412157e-02       1.002088247716e+04 
       2.035247199521e-02       9.960568582868e+03 
       2.562169416715e-02       9.329040972786e+03 
       3.220659673566e-02       8.237410350619e+03 
       3.949362915993e-02       7.142671572178e+03 
       4.505820810053e-02       6.513020520875e+03 
       4.923960418606e-02       6.146294182821e+03 
       5.278554360996e-02       5.884005001074e+03 
       5.599909666523e-02       5.668051020085e+03 
       5.902269307088e-02       5.471817149586e+03 
       6.193476995540e-02       5.280954775676e+03 
       6.478371960457e-02       5.087970718944e+03 
       6.760202382391e-02       4.889415840305e+03 
       7.041297284842e-02       4.684012025323e+03 
       7.323419324948e-02       4.473084515730e+03 
       7.607964735493e-02       4.259534447488e+03 
       7.896083671288e-02       4.047141782540e+03 
       8.188756244293e-02       3.840426558623e+03 
       8.486842505714e-02       3.643589074776e+03 
       8.791116394846e-02       3.460787716611e+03 
       9.102289429824e-02       3.294905559268e+03 
       9.421027610469e-02       3.147688731549e+03 
       9.747963694874e-02       3.019277119923e+03 
       1.008370623968e-01       2.908125930028e+03 
       1.042884632397e-01       2.811223255704e+03 
       1.078396258265e-01       2.724078940116e+03 
       1.114962498664e-01       2.641402515614e+03 
       1.152639768461e-01       2.557843344738e+03 
       1.191484114002e-01       2.468735509804e+03 
       1.231551374303e-01       2.371087604846e+03 
       1.272897304146e-01       2.264405608158e+03 
       1.315577671061e-01       2.150792112137e+03 
       1.359648336658e-01       2.034682736891e+03 
       1.405165331756e-01       1.921705347530e+03 
       1.452184934088e-01       1.817445274031e+03 
       1.500763757012e-01       1.725887706966e+03 
       1.550958857364e-01       1.648469790177e+03 
       1.602827870465e-01       1.583598520310e+03 
       1.656429180142e-01       1.526942764369e+03 
       1.711822131619e-01       1.473104066766e+03 
       1.769067295037e-01       1.416624907753e+03 
       1.828226787461e-01       1.354038156585e+03 
       1.889364661391e-01       1.285801329793e+03 
       1.952547368121e-01       1.215927628938e+03 
       2.017844304952e-01       1.149682201316e+03 
       2.085328456240e-01       1.091056995926e+03 
       2.155077139792e-01       1.041341262898e+03 
       2.227172872312e-01       9.989372951953e+02 
       2.301704370654e-01       9.596387318613e+02 
       2.378767709812e-01       9.192769113644e+02 
       2.458467664186e-01       8.761809218454e+02 
       2.540919266120e-01       8.317303931860e+02 
       2.626249625558e-01       7.892923635388e+02 
       2.714600067712e-01       7.517347379376e+02 
       2.806128662922e-01       7.190220347853e+02 
       2.901013245985e-01       6.888273739550e+02 
       2.999455053264e-01       6.585918217900e+02 
       3.101683148206e-01       6.275572473131e+02 
       3.207959864046e-01       5.972876341226e+02 
       3.318587573813e-01       5.694836845770e+02 
       3.433917212835e-01       5.443312606002e+02 
       3.554359144810e-01       5.203394940835e+02 
       3.680397205486e-01       4.964665183884e+02 
       3.812607120873e-01       4.731097402673e+02 
       3.951681050248e-01       4.511722102519e+02 
       4.098460867221e-01       4.305378241363e+02 
       4.253984172637e-01       4.104812666007e+02 
       4.419549303588e-01       3.907914290333e+02 
       4.596809455904e-01       3.718735542344e+02 
       4.787912809339e-01       3.536309443113e+02 
       4.995717927573e-01       3.356183946593e+02 
       5.224137389463e-01       3.179344737693e+02 
       5.478710284147e-01       3.004287587575e+02 
       5.767605907074e-01       2.828226273931e+02 
       6.103492519865e-01       2.649298548704e+02 
       6.507270103951e-01       2.463365338092e+02 
       7.016135853497e-01       2.264840650149e+02 
       7.702328880464e-01       2.044585627799e+02 
       8.716632866864e-01       1.789038311708e+02 
       1.035002208616e+00       1.488202692437e+02 
       1.286451946962e+00       1.173806014981e+02 
       1.618591804555e+00       9.010271401868e+01 
       2.037674664976e+00       6.755657834438e+01 
       2.565280390808e+00       4.916834500946e+01 
       3.229496672358e+00       3.458175085484e+01 
       4.065695428137e+00       2.347743695889e+01 
       5.118407291097e+00       1.542330391511e+01 
       6.443693006674e+00       9.850747415351e+00 
       8.112128871903e+00       6.148635054394e+00 
       1.021256518059e+01       3.768813184509e+00 
