# Matter power spectrum P(k) at redshift z=0
# for k=9.35944e-06 to 11.7986 h/Mpc,
# number of wavenumbers equal to 123
#    1:k (h/Mpc)              2:P (Mpc/h)^3        
       9.359435543475e-06       7.851198421710e+01 
       1.178283124573e-05       9.761681029717e+01 
       1.483370567813e-05       1.213703272942e+02 
       1.867452902928e-05       1.509034014811e+02 
       2.350983914824e-05       1.876219036549e+02 
       2.959713393092e-05       2.332732135845e+02 
       3.726058402191e-05       2.900287950994e+02 
       4.690829608347e-05       3.605864387986e+02 
       5.905404596345e-05       4.482960873229e+02 
       7.434463913264e-05       5.573146386809e+02 
       9.359435543475e-05       6.927942379513e+02 
       1.178283124573e-04       8.611090036776e+02 
       1.483370567813e-04       1.070122525155e+03 
       1.867452902928e-04       1.329493321637e+03 
       2.350983914824e-04       1.651004996245e+03 
       2.959713393092e-04       2.048889523446e+03 
       3.726058402191e-04       2.540085795394e+03 
       4.690829608347e-04       3.144347663632e+03 
       5.905404596345e-04       3.884099746201e+03 
       7.434463913264e-04       4.783923036367e+03 
       9.359435543475e-04       5.869415471162e+03 
       1.178283124573e-03       7.164821407816e+03 
       1.483370567813e-03       8.688874948859e+03 
       1.867452902928e-03       1.044895026722e+04 
       2.350983914824e-03       1.243323095057e+04 
       2.959713393092e-03       1.460176374972e+04 
       3.726058402191e-03       1.687808395351e+04 
       4.690829608347e-03       1.914212140525e+04 
       5.905404596345e-03       2.122873184843e+04 
       7.434463913264e-03       2.289201128029e+04 
       9.359435543475e-03       2.397331205988e+04 
       1.178283124573e-02       2.420788860963e+04 
       1.483370567813e-02       2.339245346983e+04 
       1.867452902800e-02       2.141100385930e+04 
       2.350983597288e-02       1.835056527455e+04 
       2.959597501697e-02       1.463342364516e+04 
       3.717255952314e-02       1.106376162556e+04 
       4.525550178284e-02       8.667153510607e+03 
       5.124544706636e-02       7.566673083427e+03 
       5.582497264064e-02       6.947124324160e+03 
       5.974964102087e-02       6.493598948055e+03 
       6.332677669318e-02       6.106112148771e+03 
       6.670402739888e-02       5.744286870697e+03 
       6.996401203897e-02       5.393042964500e+03 
       7.315829663511e-02       5.046440845649e+03 
       7.632180189027e-02       4.705825468875e+03 
       7.947974635808e-02       4.375495648527e+03 
       8.265133018850e-02       4.060588955126e+03 
       8.585183986194e-02       3.767220864455e+03 
       8.909392327229e-02       3.500197993659e+03 
       9.238839958169e-02       3.262877821378e+03 
       9.574479389598e-02       3.056634954145e+03 
       9.917170173139e-02       2.880978988130e+03 
       1.026770441053e-01       2.733220954634e+03 
       1.062682499757e-01       2.608919974945e+03 
       1.099523889978e-01       2.501974893445e+03 
       1.137362694238e-01       2.405521034213e+03 
       1.176265109875e-01       2.312864505320e+03 
       1.216295994950e-01       2.217751436837e+03 
       1.257519278329e-01       2.116201675773e+03 
       1.299998267969e-01       2.006292686800e+03 
       1.343795882778e-01       1.889296768855e+03 
       1.388974827655e-01       1.769021472167e+03 
       1.435597727500e-01       1.650869844805e+03 
       1.483727233406e-01       1.540401050289e+03 
       1.533426112620e-01       1.442007987767e+03 
       1.584757332759e-01       1.357925426083e+03 
       1.637784150119e-01       1.287622081642e+03 
       1.692570211446e-01       1.228220348771e+03 
       1.749179678346e-01       1.175149829496e+03 
       1.807677383248e-01       1.123662633397e+03 
       1.868129025812e-01       1.070135082642e+03 
       1.930601418526e-01       1.013457897174e+03 
       1.995162790268e-01       9.543834356588e+02 
       2.061883156638e-01       8.965900268037e+02 
       2.130834766118e-01       8.434947439274e+02 
       2.202092631495e-01       7.967498360362e+02 
       2.275735156777e-01       7.563015086257e+02 
       2.351844870976e-01       7.200622507153e+02 
       2.430509281975e-01       6.854285828118e+02 
       2.511821866198e-01       6.510252824117e+02 
       2.595883213423e-01       6.170583401141e+02 
       2.682802350927e-01       5.840432914745e+02 
       2.772698277661e-01       5.529664140791e+02 
       2.865701747843e-01       5.248308079535e+02 
       2.961957354792e-01       4.992184287373e+02 
       3.061625981004e-01       4.750534456200e+02 
       3.164887700566e-01       4.518269758618e+02 
       3.271945246887e-01       4.293297336458e+02 
       3.383028194942e-01       4.079811083674e+02 
       3.498398056536e-01       3.881076297711e+02 
       3.618354555193e-01       3.694529600987e+02 
       3.743243442389e-01       3.518683872543e+02 
       3.873466352041e-01       3.349193718425e+02 
       4.009493385050e-01       3.187852187993e+02 
       4.151879402114e-01       3.035042371561e+02 
       4.301285431659e-01       2.890412131160e+02 
       4.458507255107e-01       2.751074236556e+02 
       4.624514256927e-01       2.618042150955e+02 
       4.800503272100e-01       2.490400736089e+02 
       4.987974879456e-01       2.367227052858e+02 
       5.188844216725e-01       2.248474021853e+02 
       5.405606563327e-01       2.133019480336e+02 
       5.641592954333e-01       2.020293629177e+02 
       5.901379982097e-01       1.909372677612e+02 
       6.191476494501e-01       1.799322231483e+02 
       6.521535754197e-01       1.688806942970e+02 
       6.906630528721e-01       1.576031836492e+02 
       7.371839693657e-01       1.458633119381e+02 
       7.962255773212e-01       1.332739629702e+02 
       8.766393793671e-01       1.192458775190e+02 
       9.969679077222e-01       1.029332376108e+02 
       1.191661167987e+00       8.399041167528e+01 
       1.485897812732e+00       6.507322660706e+01 
       1.869953737606e+00       4.938718105940e+01 
       2.354125410506e+00       3.688704944322e+01 
       2.963668289766e+00       2.700245692562e+01 
       3.731037322113e+00       1.930307417921e+01 
       4.697097697160e+00       1.344171518768e+01 
       5.913295652635e+00       9.110769217806e+00 
       7.444398164554e+00       6.018181707011e+00 
       9.371942024871e+00       3.884461644228e+00 
       1.179857597297e+01       2.457865341927e+00 
