# Matter power spectrum P(k) at redshift z=0.5
# for k=1.02085e-05 to 10.2202 h/Mpc,
# number of wavenumbers equal to 122
#    1:k (h/Mpc)              2:P (Mpc/h)^3        
       1.020851085915e-05       2.196872987887e+01 
       1.285175373716e-05       2.753052281783e+01 
       1.617939936583e-05       3.450035331426e+01 
       2.036865700921e-05       4.323466810472e+01 
       2.564261991301e-05       5.418010245754e+01 
       3.228214583347e-05       6.789631434749e+01 
       4.064081373700e-05       8.508449432916e+01 
       5.116375316950e-05       1.066230965037e+02 
       6.441134902785e-05       1.336124199785e+02 
       8.108908409910e-05       1.674302509003e+02 
       1.020851085915e-04       2.098010676945e+02 
       1.285175373716e-04       2.628817286622e+02 
       1.617939936583e-04       3.293668906742e+02 
       2.036865700921e-04       4.126172796348e+02 
       2.564261991301e-04       5.168132033216e+02 
       3.228214583347e-04       6.471336094929e+02 
       4.064081373700e-04       8.099569790300e+02 
       5.116375316950e-04       1.013074161043e+03 
       6.441134902785e-04       1.265895862444e+03 
       8.108908409910e-04       1.579629332134e+03 
       1.020851085915e-03       1.967378604603e+03 
       1.285175373716e-03       2.444055310141e+03 
       1.617939936583e-03       3.025848387589e+03 
       2.036865700921e-03       3.729179074478e+03 
       2.564261991301e-03       4.568825671796e+03 
       3.228214583347e-03       5.554782842519e+03 
       4.064081373700e-03       6.687905401746e+03 
       5.116375316950e-03       7.931925958857e+03 
       6.441134902785e-03       9.282228834951e+03 
       8.108908409910e-03       1.065448414823e+04 
       1.020851085915e-02       1.193515429233e+04 
       1.285175373716e-02       1.296496597735e+04 
       1.617939936556e-02       1.354245670603e+04 
       2.036865606906e-02       1.346468987292e+04 
       2.564216506717e-02       1.262435015889e+04 
       3.223863008295e-02       1.116863164415e+04 
       3.961429308909e-02       9.689619854417e+03 
       4.531024177884e-02       8.826008343495e+03 
       4.956745392575e-02       8.322544860349e+03 
       5.316507486298e-02       7.960094735023e+03 
       5.641933154006e-02       7.659531094425e+03 
       5.947778902661e-02       7.385146329160e+03 
       6.242129305004e-02       7.118595972026e+03 
       6.529953566097e-02       6.849935195926e+03 
       6.814577600576e-02       6.574986441369e+03 
       7.098380713916e-02       6.293094108674e+03 
       7.383160187089e-02       6.006048909062e+03 
       7.670337364951e-02       5.717876171031e+03 
       7.961081444656e-02       5.433912674474e+03 
       8.256387553522e-02       5.159583302056e+03 
       8.557128002727e-02       4.900551913222e+03 
       8.864087059886e-02       4.661463218146e+03 
       9.177985191662e-02       4.445492260901e+03 
       9.499496347047e-02       4.254470390422e+03 
       9.829260502596e-02       4.087623311924e+03 
       1.016789289629e-01       3.942291540588e+03 
       1.051599089327e-01       3.814009797775e+03 
       1.087413912436e-01       3.696602632420e+03 
       1.124291334504e-01       3.583250502774e+03 
       1.162288333629e-01       3.467155842731e+03 
       1.201461508604e-01       3.342958473354e+03 
       1.241867243421e-01       3.207814104639e+03 
       1.283561832795e-01       3.062008146266e+03 
       1.326601580899e-01       2.909316804230e+03 
       1.371042883910e-01       2.755918415750e+03 
       1.416942305932e-01       2.609117126304e+03 
       1.464356657196e-01       2.475412440649e+03 
       1.513343083047e-01       2.359040831346e+03 
       1.563959171943e-01       2.260473660955e+03 
       1.616263090558e-01       2.176642438259e+03 
       1.670313753949e-01       2.101286201946e+03 
       1.726171038681e-01       2.027341764858e+03 
       1.783896046781e-01       1.948998589533e+03 
       1.843551428438e-01       1.863118666379e+03 
       1.905201771522e-01       1.771545827853e+03 
       1.968914066352e-01       1.679909855453e+03 
       2.034758254750e-01       1.594915644165e+03 
       2.102807873438e-01       1.520447334778e+03 
       2.173140803303e-01       1.456663698231e+03 
       2.245840138287e-01       1.400494190666e+03 
       2.320995190675e-01       1.346898640031e+03 
       2.398702653717e-01       1.291437608502e+03 
       2.479067948153e-01       1.233125635275e+03 
       2.562206786608e-01       1.174657252818e+03 
       2.648246999707e-01       1.119877522919e+03 
       2.737330680775e-01       1.071310541849e+03 
       2.829616723242e-01       1.028110041235e+03 
       2.925283847938e-01       9.870336805448e+02 
       3.024534248456e-01       9.457392275816e+02 
       3.127598024921e-01       9.042083601790e+02 
       3.234738634560e-01       8.644097731327e+02 
       3.346259668429e-01       8.278664340549e+02 
       3.462513378345e-01       7.940661203325e+02 
       3.583911543108e-01       7.613608462318e+02 
       3.710939504780e-01       7.290123658862e+02 
       3.844174566401e-01       6.978241686800e+02 
       3.984310492002e-01       6.683952525754e+02 
       4.132190705953e-01       6.402742053403e+02 
       4.288854156817e-01       6.128798866898e+02 
       4.455600058624e-01       5.861400966688e+02 
       4.634081531952e-01       5.603402742502e+02 
       4.826444852932e-01       5.352292050055e+02 
       5.035543223912e-01       5.104327054081e+02 
       5.265277281782e-01       4.859953646806e+02 
       5.521161369113e-01       4.616269528024e+02 
       5.811314212074e-01       4.370279494339e+02 
       6.148298834407e-01       4.118522055025e+02 
       6.552787087807e-01       3.855059826895e+02 
       7.061453340107e-01       3.571203653722e+02 
       7.745279089602e-01       3.252602612108e+02 
       8.752195406234e-01       2.876887152468e+02 
       1.037055478661e+00       2.422697240545e+02 
       1.287537605145e+00       1.928469555780e+02 
       1.619805634245e+00       1.483272566976e+02 
       2.039200072540e+00       1.106220788855e+02 
       2.567200756760e+00       7.955054324126e+01 
       3.231914269852e+00       5.505842417620e+01 
       4.068739003057e+00       3.677769295183e+01 
       5.122238924907e+00       2.383513670104e+01 
       6.448516747846e+00       1.507344987994e+01 
       8.118201602244e+00       9.351100633470e+00 
       1.022021029513e+01       5.716374178624e+00 
