# Matter power spectrum P(k) at redshift z=1.5
# for k=7.84939e-06 to 12.4569 h/Mpc,
# number of wavenumbers equal to 124
#    1:k (h/Mpc)              2:P (Mpc/h)^3        
       7.849394252615e-06       3.676268081095e+01 
       9.881801891809e-06       4.569578467742e+01 
       1.244045151591e-05       5.679946706449e+01 
       1.566160054758e-05       7.060108888456e+01 
       1.971678691871e-05       8.775600005302e+01 
       2.482196409090e-05       1.090786168383e+02 
       3.124900136468e-05       1.355807981021e+02 
       3.934016191118e-05       1.685194538630e+02 
       4.952632953408e-05       2.094552666410e+02 
       6.234995480335e-05       2.603249217079e+02 
       7.849394252615e-05       3.235293395413e+02 
       9.881801891809e-05       4.020403762594e+02 
       1.244045151591e-04       4.995276938629e+02 
       1.566160054758e-04       6.205054146197e+02 
       1.971678691871e-04       7.704936245721e+02 
       2.482196409090e-04       9.561810631398e+02 
       3.124900136468e-04       1.185560568983e+03 
       3.934016191118e-04       1.467988264921e+03 
       4.952632953408e-04       1.814097858838e+03 
       6.234995480335e-04       2.235500083008e+03 
       7.849394252615e-04       2.744219930144e+03 
       9.881801891809e-04       3.351779308619e+03 
       1.244045151591e-03       4.067540575460e+03 
       1.566160054758e-03       4.895795315745e+03 
       1.971678691871e-03       5.832008686097e+03 
       2.482196409090e-03       6.858718580544e+03 
       3.124900136468e-03       7.941202392837e+03 
       3.934016191118e-03       9.023372264266e+03 
       4.952632953408e-03       1.002613360959e+04 
       6.234995480335e-03       1.084539125872e+04 
       7.849394252615e-03       1.136352512677e+04 
       9.881801891809e-03       1.144808798661e+04 
       1.244045151591e-02       1.097630417174e+04 
       1.566160053333e-02       9.876441927739e+03 
       1.971676816175e-02       8.206092693044e+03 
       2.481790582893e-02       6.249349807276e+03 
       3.104961750418e-02       4.539088569036e+03 
       3.696476284193e-02       3.614233782038e+03 
       4.119816650626e-02       3.242305374283e+03 
       4.457470262109e-02       3.043970177118e+03 
       4.753676998434e-02       2.903361917658e+03 
       5.027168451860e-02       2.779355513120e+03 
       5.287433082988e-02       2.654115641493e+03 
       5.539984916086e-02       2.519708010176e+03 
       5.788362314083e-02       2.373934072916e+03 
       6.035013572085e-02       2.218111336759e+03 
       6.281737926699e-02       2.056064301417e+03 
       6.529925471555e-02       1.892883759143e+03 
       6.780696954471e-02       1.734334716353e+03 
       7.034989814427e-02       1.585923237158e+03 
       7.293613534299e-02       1.452102717232e+03 
       7.557286574913e-02       1.336250080872e+03 
       7.826661773238e-02       1.239982443471e+03 
       8.102344247237e-02       1.163468020301e+03 
       8.384904276166e-02       1.105099756879e+03 
       8.674886716092e-02       1.062137883932e+03 
       8.972817966550e-02       1.030302377509e+03 
       9.279211168787e-02       1.004560347354e+03 
       9.594570103936e-02       9.794191664736e+02 
       9.919392122501e-02       9.497072274664e+02 
       1.025417034675e-01       9.114627347727e+02 
       1.059939532808e-01       8.629414006618e+02 
       1.095555630177e-01       8.051090901276e+02 
       1.132314215529e-01       7.415289714279e+02 
       1.170264220867e-01       6.773689089409e+02 
       1.209454689440e-01       6.181373626728e+02 
       1.249934841681e-01       5.680564751145e+02 
       1.291754146640e-01       5.292746216020e+02 
       1.334962406182e-01       5.014723376004e+02 
       1.379609859024e-01       4.821146304866e+02 
       1.425747311586e-01       4.669044403878e+02 
       1.473426302531e-01       4.510085107987e+02 
       1.522699307851e-01       4.306349630837e+02 
       1.573619993317e-01       4.044013147050e+02 
       1.626243521253e-01       3.739367925509e+02 
       1.680626918732e-01       3.429959856687e+02 
       1.736829514755e-01       3.156245052741e+02 
       1.794913454627e-01       2.940079711145e+02 
       1.854944300787e-01       2.777601894500e+02 
       1.916991730965e-01       2.648141705601e+02 
       1.981130346709e-01       2.525675317076e+02 
       2.047440608448e-01       2.386893339822e+02 
       2.116009917393e-01       2.226230432838e+02 
       2.186933870162e-01       2.060612058612e+02 
       2.260317719377e-01       1.911140181810e+02 
       2.336278083272e-01       1.788424074387e+02 
       2.414944960220e-01       1.688237464717e+02 
       2.496464121303e-01       1.594196931905e+02 
       2.580999977001e-01       1.495126844127e+02 
       2.668739045195e-01       1.392699303782e+02 
       2.759894190181e-01       1.295115819866e+02 
       2.854709861249e-01       1.210418133691e+02 
       2.953468642147e-01       1.135268196853e+02 
       3.056499540726e-01       1.062935615663e+02 
       3.164188619294e-01       9.901354591041e+01 
       3.276992819099e-01       9.214134863930e+01 
       3.395458213379e-01       8.583048404882e+01 
       3.520244509955e-01       7.995173924478e+01 
       3.652158548929e-01       7.428991591759e+01 
       3.792201037413e-01       6.885032229998e+01 
       3.941633256798e-01       6.373350276361e+01 
       4.102074772188e-01       5.889289434633e+01 
       4.275650846774e-01       5.420489352907e+01 
       4.465222560617e-01       4.972594288516e+01 
       4.674760567939e-01       4.540976754586e+01 
       4.909981039578e-01       4.120941564069e+01 
       5.179488644855e-01       3.709863073747e+01 
       5.496967688438e-01       3.301472347868e+01 
       5.885707282785e-01       2.890490921791e+01 
       6.388718055101e-01       2.468013328473e+01 
       7.092655470413e-01       2.023012878550e+01 
       8.178629374176e-01       1.551021503706e+01 
       9.936643121334e-01       1.091422145772e+01 
       1.245806560208e+00       7.389867023423e+00 
       1.568226925919e+00       5.069779439350e+00 
       1.974279814952e+00       3.539573381576e+00 
       2.485471028168e+00       2.502900309904e+00 
       3.129022637638e+00       1.780775158479e+00 
       3.939206112602e+00       1.265499341696e+00 
       4.959166677450e+00       8.917688885343e-01 
       6.243220951564e+00       6.191295658221e-01 
       7.859749507370e+00       4.213842309327e-01 
       9.894838385164e+00       2.802855235540e-01 
       1.245686348868e+01       1.820315066562e-01 
