# Matter power spectrum P(k) at redshift z=1.5
# for k=1.13317e-05 to 11.3447 h/Mpc,
# number of wavenumbers equal to 122
#    1:k (h/Mpc)              2:P (Mpc/h)^3        
       1.133165464208e-05       1.225631947889e+01 
       1.426570798660e-05       1.522403054440e+01 
       1.795946230156e-05       1.891032396016e+01 
       2.260962347359e-05       2.348918018192e+01 
       2.846382954200e-05       2.917669990970e+01 
       3.583383832741e-05       3.624127199151e+01 
       4.511212967250e-05       4.501622828059e+01 
       5.679280642486e-05       5.591550438882e+01 
       7.149790721536e-05       6.945305936332e+01 
       9.001053228352e-05       8.626689525150e+01 
       1.133165464208e-04       1.071487016287e+02 
       1.426570798660e-04       1.330803038289e+02 
       1.795946230156e-04       1.652782080132e+02 
       2.260962347359e-04       2.052475307369e+02 
       2.846382954200e-04       2.548463120087e+02 
       3.583383832741e-04       3.163604038263e+02 
       4.511212967250e-04       3.925874205461e+02 
       5.679280642486e-04       4.869253080924e+02 
       7.149790721536e-04       6.034569957980e+02 
       9.001053228352e-04       7.470184580469e+02 
       1.133165464208e-03       9.232341885133e+02 
       1.426570798660e-03       1.138493869533e+03 
       1.795946230156e-03       1.399743685153e+03 
       2.260962347359e-03       1.714203269535e+03 
       2.846382954200e-03       2.088470445600e+03 
       3.583383832741e-03       2.527352968156e+03 
       4.511212967250e-03       3.032068223203e+03 
       5.679280642486e-03       3.597665543980e+03 
       7.149790721536e-03       4.209592484212e+03 
       9.001053228352e-03       4.839640839607e+03 
       1.133165464208e-02       5.440841405535e+03 
       1.426570798660e-02       5.944460848897e+03 
       1.795946230126e-02       6.260386181292e+03 
       2.260962241942e-02       6.292542684276e+03 
       2.846332087368e-02       5.979541237332e+03 
       3.578527773698e-02       5.368079168991e+03 
       4.396897826138e-02       4.711400978397e+03 
       5.028612931321e-02       4.314417822257e+03 
       5.500859753311e-02       4.078566402059e+03 
       5.899993157405e-02       3.907661809294e+03 
       6.261058771346e-02       3.765820856614e+03 
       6.600414837021e-02       3.636578585617e+03 
       6.927025249543e-02       3.511228062454e+03 
       7.246400485734e-02       3.384977667637e+03 
       7.562229141337e-02       3.255465394248e+03 
       7.877150210344e-02       3.121987460354e+03 
       8.193157283432e-02       2.985159770270e+03 
       8.511827051694e-02       2.846575293568e+03 
       8.834456569958e-02       2.708508431215e+03 
       9.162149839384e-02       2.573563542990e+03 
       9.495874647066e-02       2.444433188430e+03 
       9.836501130017e-02       2.323593998071e+03 
       1.018482866204e-01       2.212909235627e+03 
       1.054160502274e-01       2.113550670885e+03 
       1.090754031187e-01       2.025658926801e+03 
       1.128331719111e-01       1.948410229312e+03 
       1.166959849929e-01       1.879981295898e+03 
       1.206703295194e-01       1.817713757671e+03 
       1.247625942153e-01       1.758368040122e+03 
       1.289791015509e-01       1.698597099199e+03 
       1.333261319377e-01       1.635517704239e+03 
       1.378099419754e-01       1.567249825328e+03 
       1.424367783751e-01       1.493425278674e+03 
       1.472128889120e-01       1.415308759521e+03 
       1.521445315833e-01       1.335613515775e+03 
       1.572379830323e-01       1.257866496875e+03 
       1.624995472273e-01       1.185552619813e+03 
       1.679355653381e-01       1.121328443054e+03 
       1.735524277241e-01       1.066144493798e+03 
       1.793565889311e-01       1.019067120849e+03 
       1.853545865796e-01       9.774000776287e+02 
       1.915530650227e-01       9.376950338532e+02 
       1.979588046439e-01       8.965637101815e+02 
       2.045787576758e-01       8.516782732219e+02 
       2.114200914345e-01       8.032926370770e+02 
       2.184902399056e-01       7.539236303985e+02 
       2.257969646844e-01       7.069726324955e+02 
       2.333484263855e-01       6.650727070317e+02 
       2.411532678045e-01       6.290914387358e+02 
       2.492207103538e-01       5.980074537155e+02 
       2.575606656382e-01       5.691543595132e+02 
       2.661838644923e-01       5.397825935467e+02 
       2.751020064298e-01       5.087679566826e+02 
       2.843279332748e-01       4.770002356914e+02 
       2.938758318429e-01       4.466392657455e+02 
       3.037614719844e-01       4.196083253701e+02 
       3.140024882180e-01       3.959510705412e+02 
       3.246187157426e-01       3.741014337007e+02 
       3.356325950573e-01       3.523762251046e+02 
       3.470696640984e-01       3.302331758316e+02 
       3.589591632485e-01       3.087017184724e+02 
       3.713347875608e-01       2.889332223711e+02 
       3.842356332757e-01       2.710721418593e+02 
       3.977074040294e-01       2.541320986178e+02 
       4.118039689867e-01       2.373739823910e+02 
       4.265894051740e-01       2.210694361321e+02 
       4.421407172939e-01       2.058474558207e+02 
       4.585515233778e-01       1.916305249845e+02 
       4.759371465509e-01       1.779329138109e+02 
       4.944418027953e-01       1.645975878833e+02 
       5.142489976494e-01       1.519180566975e+02 
       5.355969873013e-01       1.398534549042e+02 
       5.588025151652e-01       1.280963809752e+02 
       5.842986233215e-01       1.167378961227e+02 
       6.126975379092e-01       1.057121242122e+02 
       6.449006945509e-01       9.486551087363e+01 
       6.823031000826e-01       8.415173388751e+01 
       7.272004018436e-01       7.339271419108e+01 
       7.836658507799e-01       6.241548718550e+01 
       8.595840611282e-01       5.096957139010e+01 
       9.713882139278e-01       3.885238359016e+01 
       1.151098628266e+00       2.648246923120e+01 
       1.429189835169e+00       1.608626019321e+01 
       1.798020193890e+00       9.374858849504e+00 
       2.263557451955e+00       5.399196641187e+00 
       2.849649959660e+00       3.080813315491e+00 
       3.587496748922e+00       1.743323517364e+00 
       4.516390821947e+00       9.790633475340e-01 
       5.685799175344e+00       5.460894937305e-01 
       7.157997068198e+00       3.026968200497e-01 
       9.011384406703e+00       1.668301384919e-01 
       1.134466082504e+01       9.147021339564e-02 
