# Matter power spectrum P(k) at redshift z=0.5
# for k=1.02759e-05 to 10.2874 h/Mpc,
# number of wavenumbers equal to 122
#    1:k (h/Mpc)              2:P (Mpc/h)^3        
       1.027593079939e-05       3.754262744025e+01 
       1.293663041319e-05       4.671690592060e+01 
       1.628625277016e-05       5.813300982793e+01 
       2.050317747525e-05       7.233873186669e+01 
       2.581197114612e-05       9.001563442096e+01 
       3.249534640435e-05       1.120116541593e+02 
       4.090921735349e-05       1.393816943784e+02 
       5.150165330292e-05       1.734378643569e+02 
       6.483674009246e-05       2.158118041336e+02 
       8.162461972030e-05       2.685316972777e+02 
       1.027593079939e-04       3.341170682769e+02 
       1.293663041319e-04       4.156947325657e+02 
       1.628625277016e-04       5.171392173229e+02 
       2.050317747525e-04       6.432400867415e+02 
       2.581197114612e-04       7.998963041832e+02 
       3.249534640435e-04       9.943329383511e+02 
       4.090921735349e-04       1.235327193401e+03 
       5.150165330292e-04       1.533419257983e+03 
       6.483674009246e-04       1.901071641249e+03 
       8.162461972030e-04       2.352731066469e+03 
       1.027593079939e-03       2.904718826478e+03 
       1.293663041319e-03       3.574763310873e+03 
       1.628625277016e-03       4.380777265651e+03 
       2.050317747525e-03       5.338828202286e+03 
       2.581197114612e-03       6.459857025561e+03 
       3.249534640435e-03       7.744918496551e+03 
       4.090921735349e-03       9.179245724650e+03 
       5.150165330292e-03       1.072455182391e+04 
       6.483674009246e-03       1.230999946661e+04 
       8.162461972030e-03       1.382613522101e+04 
       1.027593079939e-02       1.511297807854e+04 
       1.293663041319e-02       1.596318369190e+04 
       1.628625277015e-02       1.613393770392e+04 
       2.050317740505e-02       1.539911595064e+04 
       2.581190489613e-02       1.368134032055e+04 
       3.248442351213e-02       1.124220277634e+04 
       4.048462641838e-02       8.850874998456e+03 
       4.755536309263e-02       7.474224388814e+03 
       5.263591336096e-02       6.838025651891e+03 
       5.677241613797e-02       6.461356733265e+03 
       6.044091555544e-02       6.185876220315e+03 
       6.384912768752e-02       5.948340690681e+03 
       6.710511350360e-02       5.717827973310e+03 
       7.027287383693e-02       5.478796321984e+03 
       7.339406203840e-02       5.223594060706e+03 
       7.649782038735e-02       4.951124306401e+03 
       7.960576078230e-02       4.664019815312e+03 
       8.273470925269e-02       4.368326181478e+03 
       8.589832141790e-02       4.071991432547e+03 
       8.910808484287e-02       3.783814595778e+03 
       9.237396822906e-02       3.512387851610e+03 
       9.570485697852e-02       3.265205202017e+03 
       9.910885408183e-02       3.047980435875e+03 
       1.025934930271e-01       2.863578909853e+03 
       1.061658914207e-01       2.712367336366e+03 
       1.098328635458e-01       2.591831690317e+03 
       1.136010037843e-01       2.496831628820e+03 
       1.174767489312e-01       2.419842501900e+03 
       1.214664249485e-01       2.351694796701e+03 
       1.255762821066e-01       2.282578934529e+03 
       1.298125214044e-01       2.203582961831e+03 
       1.341813144609e-01       2.108677769595e+03 
       1.386888186059e-01       1.995610449777e+03 
       1.433411885863e-01       1.867235826953e+03 
       1.481445861029e-01       1.730832432066e+03 
       1.531051882563e-01       1.596035996170e+03 
       1.582291958989e-01       1.472735338885e+03 
       1.635228428362e-01       1.368455331402e+03 
       1.689924067862e-01       1.286448326816e+03 
       1.746442229861e-01       1.225248608311e+03 
       1.804847013209e-01       1.178570044391e+03 
       1.865203478404e-01       1.137678150265e+03 
       1.927577915242e-01       1.093295149386e+03 
       1.992038171572e-01       1.038221435555e+03 
       2.058654051915e-01       9.714804264817e+02 
       2.127497794985e-01       8.983749821813e+02 
       2.198644639719e-01       8.275151536764e+02 
       2.272173490349e-01       7.661208175250e+02 
       2.348167692473e-01       7.176174963278e+02 
       2.426715934193e-01       6.807944104615e+02 
       2.507913289338e-01       6.500072430136e+02 
       2.591862423888e-01       6.181083463933e+02 
       2.678674992212e-01       5.810032377945e+02 
       2.768473257096e-01       5.395516880553e+02 
       2.861391977279e-01       4.985167772361e+02 
       2.957580619079e-01       4.630968424810e+02 
       3.057205965770e-01       4.347529739497e+02 
       3.160455221034e-01       4.106421164926e+02 
       3.267539733285e-01       3.867512564652e+02 
       3.378699508854e-01       3.608003701298e+02 
       3.494208738556e-01       3.343220060200e+02 
       3.614382640547e-01       3.102039554255e+02 
       3.739586032884e-01       2.896739806887e+02 
       3.870244207196e-01       2.710943604108e+02 
       4.006856904816e-01       2.524258971444e+02 
       4.150016537449e-01       2.336688107601e+02 
       4.300432309613e-01       2.161914825322e+02 
       4.458962696139e-01       2.004387060984e+02 
       4.626659988295e-01       1.855889550138e+02 
       4.804832671330e-01       1.709137662383e+02 
       4.995134829312e-01       1.569323223906e+02 
       5.199697720338e-01       1.439848644262e+02 
       5.421329363669e-01       1.314434344245e+02 
       5.663828066510e-01       1.193159589836e+02 
       5.932495406013e-01       1.077491649289e+02 
       6.235016635389e-01       9.645008378817e+01 
       6.583059253808e-01       8.542559468670e+01 
       6.995374285797e-01       7.450089250786e+01 
       7.504287366523e-01       6.354101358259e+01 
       8.170394814276e-01       5.232206274268e+01 
       9.117354574855e-01       4.062571267620e+01 
       1.060078469525e+00       2.857349208441e+01 
       1.298317733998e+00       1.767342402663e+01 
       1.630514068587e+00       1.020860576113e+01 
       2.052605854528e+00       5.812109267917e+00 
       2.584077262943e+00       3.282552157875e+00 
       3.253160532086e+00       1.840672356748e+00 
       4.095486462489e+00       1.025440858823e+00 
       5.155911981287e+00       5.678682600596e-01 
       6.490908614216e+00       3.127756839140e-01 
       8.171569800070e+00       1.714001441115e-01 
       1.028739687556e+01       9.350219869118e-02 
