# Matter power spectrum P(k) at redshift z=0
# for k=9.88887e-06 to 12.462 h/Mpc,
# number of wavenumbers equal to 123
#    1:k (h/Mpc)              2:P (Mpc/h)^3        
       9.888867369100e-06       5.940617116017e+01 
       1.244934642482e-05       7.438424586392e+01 
       1.567279857444e-05       9.313860923948e+01 
       1.973088439929e-05       1.166213432960e+02 
       2.483971176744e-05       1.460243015146e+02 
       3.127134436567e-05       1.828397506984e+02 
       3.936829008291e-05       2.289356653580e+02 
       4.956174080426e-05       2.866501196681e+02 
       6.239453495124e-05       3.589088634613e+02 
       7.855006560719e-05       4.493717700299e+02 
       9.888867369100e-05       5.626144345801e+02 
       1.244934642482e-04       7.043522329747e+02 
       1.567279857444e-04       8.817144200549e+02 
       1.973088439929e-04       1.103574946143e+03 
       2.483971176744e-04       1.380943627024e+03 
       3.127134436567e-04       1.727414348061e+03 
       3.936829008291e-04       2.159655022078e+03 
       4.956174080426e-04       2.697907763630e+03 
       6.239453495124e-04       3.366449445922e+03 
       7.855006560719e-04       4.193934034378e+03 
       9.888867369100e-04       5.213444764437e+03 
       1.244934642482e-03       6.461872401361e+03 
       1.567279857444e-03       7.978008771320e+03 
       1.973088439929e-03       9.799354495134e+03 
       2.483971176744e-03       1.195626892972e+04 
       3.127134436567e-03       1.446321846715e+04 
       3.936829008291e-03       1.730707007064e+04 
       4.956174080426e-03       2.043099099940e+04 
       6.239453495124e-03       2.371552342281e+04 
       7.855006560719e-03       2.695989298621e+04 
       9.888867369100e-03       2.985970359726e+04 
       1.244934642482e-02       3.199532488498e+04 
       1.567279857438e-02       3.285771366571e+04 
       1.973088412569e-02       3.196021187644e+04 
       2.483953105121e-02       2.908653119635e+04 
       3.124906082833e-02       2.471177251145e+04 
       3.870071232878e-02       2.040342512074e+04 
       4.480376039493e-02       1.796882494353e+04 
       4.926546504958e-02       1.671855387312e+04 
       5.297358021727e-02       1.590288161584e+04 
       5.629809309351e-02       1.526493373496e+04 
       5.940622890475e-02       1.469505085191e+04 
       6.238744512370e-02       1.413992328558e+04 
       6.529579149894e-02       1.357001558041e+04 
       6.816697583685e-02       1.297190661504e+04 
       7.102627874102e-02       1.234289179905e+04 
       7.389263263266e-02       1.169045787460e+04 
       7.678090027232e-02       1.102509842534e+04 
       7.970323049914e-02       1.036240079442e+04 
       8.266990681721e-02       9.719766930654e+03 
       8.568990094764e-02       9.113618839577e+03 
       8.877124643071e-02       8.558342936746e+03 
       9.192129797571e-02       8.064896226149e+03 
       9.514691571282e-02       7.638802771416e+03 
       9.845459856256e-02       7.279962929928e+03 
       1.018505821950e-01       6.982556488884e+03 
       1.053409117589e-01       6.735216178646e+03 
       1.089314962668e-01       6.521475445064e+03 
       1.126281494209e-01       6.322557212365e+03 
       1.164366203022e-01       6.118221458684e+03 
       1.203626164444e-01       5.891684920274e+03 
       1.244118212200e-01       5.632135225733e+03 
       1.285899070657e-01       5.337207139325e+03 
       1.329025458125e-01       5.014964203370e+03 
       1.373554172108e-01       4.681493163463e+03 
       1.419542166282e-01       4.357306083093e+03 
       1.467046628278e-01       4.061961491009e+03 
       1.516125066880e-01       3.809854264850e+03 
       1.566835416970e-01       3.605806902470e+03 
       1.619236170408e-01       3.444456878070e+03 
       1.673386540856e-01       3.310593388108e+03 
       1.729346670535e-01       3.185044913204e+03 
       1.787177886829e-01       3.049162272439e+03 
       1.846943016711e-01       2.890303849916e+03 
       1.908706767063e-01       2.709536801949e+03 
       1.972536179335e-01       2.520392473444e+03 
       2.038501167501e-01       2.341577372045e+03 
       2.106675149230e-01       2.187038227908e+03 
       2.177135781611e-01       2.061324599623e+03 
       2.249965814830e-01       1.959240432057e+03 
       2.325254080103e-01       1.867316170424e+03 
       2.403096632182e-01       1.770974212080e+03 
       2.483598072060e-01       1.664046976669e+03 
       2.566873082712e-01       1.550872910344e+03 
       2.653048220127e-01       1.442584154021e+03 
       2.742264014396e-01       1.348975160054e+03 
       2.834677452224e-01       1.270809485705e+03 
       2.930464934284e-01       1.200398050978e+03 
       3.029825830511e-01       1.129369818977e+03 
       3.132986796737e-01       1.054843111898e+03 
       3.240207071312e-01       9.815914279686e+02 
       3.351785047422e-01       9.154097778100e+02 
       3.468066525501e-01       8.572702873438e+02 
       3.589455206200e-01       8.026808213885e+02 
       3.716426212192e-01       7.480157278246e+02 
       3.849543765881e-01       6.944626696896e+02 
       3.989484664387e-01       6.448994429520e+02 
       4.137069991361e-01       5.992112113073e+02 
       4.293308774947e-01       5.554234909492e+02 
       4.459459376957e-01       5.125878401185e+02 
       4.637117896767e-01       4.720372358049e+02 
       4.828348974902e-01       4.338493063592e+02 
       5.035885441395e-01       3.966787293383e+02 
       5.263444199718e-01       3.608897463703e+02 
       5.516247428102e-01       3.263915026811e+02 
       5.801925989553e-01       2.925726016207e+02 
       6.132179028469e-01       2.594028076601e+02 
       6.526037736177e-01       2.262952820165e+02 
       7.016799938326e-01       1.928045439136e+02 
       7.667938126955e-01       1.582008802367e+02 
       8.610586493198e-01       1.218158217163e+02 
       1.010948536754e+00       8.442010406998e+01 
       1.247824247949e+00       5.175720391277e+01 
       1.568903128482e+00       3.010967927610e+01 
       1.975097891537e+00       1.730554649251e+01 
       2.486500815272e+00       9.864207304305e+00 
       3.130319062744e+00       5.581003145175e+00 
       3.940838215112e+00       3.136172393303e+00 
       4.961221372774e+00       1.751425464661e+00 
       6.245807659721e+00       9.726144101658e-01 
       7.863005980001e+00       5.373407728255e-01 
       9.898938041313e+00       2.954577025575e-01 
       1.246202464999e+01       1.617359859746e-01 
