# Matter power spectrum P(k) at redshift z=2.5
# for k=1.03717e-05 to 10.3856 h/Mpc,
# number of wavenumbers equal to 122
#    1:k (h/Mpc)              2:P (Mpc/h)^3        
       1.037169642320e-05       7.725704834928e+00 
       1.305719219058e-05       9.650889061715e+00 
       1.643803105540e-05       1.205580089090e+01 
       2.069425501551e-05       1.505996938296e+01 
       2.605252351717e-05       1.881269283745e+01 
       3.279818389713e-05       2.350044025747e+01 
       4.129046716880e-05       2.935608559940e+01 
       5.198161838365e-05       3.667040290741e+01 
       6.544098032937e-05       4.580637703932e+01 
       8.238531310937e-05       5.721694537191e+01 
       1.037169642320e-04       7.146693364409e+01 
       1.305719219058e-04       8.925997558028e+01 
       1.643803105540e-04       1.114712302265e+02 
       2.069425501551e-04       1.391864530103e+02 
       2.605252351717e-04       1.737473644284e+02 
       3.279818389713e-04       2.168018180072e+02 
       4.129046716880e-04       2.703545145937e+02 
       5.198161838365e-04       3.368093458560e+02 
       6.544098032937e-04       4.189879473311e+02 
       8.238531310937e-04       5.201029861875e+02 
       1.037169642320e-03       6.436646965373e+02 
       1.305719219058e-03       7.933067799016e+02 
       1.643803105540e-03       9.725022795068e+02 
       2.069425501551e-03       1.184046094381e+03 
       2.605252351717e-03       1.429159138232e+03 
       3.279818389713e-03       1.706380174527e+03 
       4.129046716880e-03       2.010330940361e+03 
       5.198161838365e-03       2.330370316394e+03 
       6.544098032937e-03       2.648313967009e+03 
       8.238531310937e-03       2.942528856354e+03 
       1.037169642320e-02       3.182053744550e+03 
       1.305719219058e-02       3.332713972620e+03 
       1.643803105540e-02       3.360071540366e+03 
       2.069425500009e-02       3.237418274765e+03 
       2.605250217847e-02       2.959784640459e+03 
       3.279337567653e-02       2.561837343051e+03 
       4.104596559863e-02       2.132302947654e+03 
       4.896003352235e-02       1.819271039445e+03 
       5.462765455644e-02       1.644089382395e+03 
       5.913375527779e-02       1.524132268499e+03 
       6.308003591514e-02       1.428157663284e+03 
       6.672021273348e-02       1.344672350629e+03 
       7.018228778317e-02       1.268635329901e+03 
       7.354043353454e-02       1.197678799190e+03 
       7.684214565657e-02       1.130740225508e+03 
       8.012023328757e-02       1.067447512876e+03 
       8.339877500124e-02       1.007799960920e+03 
       8.669635270993e-02       9.519532876349e+02 
       9.002793318620e-02       9.000850242412e+02 
       9.340602461863e-02       8.523146894266e+02 
       9.684141995255e-02       8.086123879160e+02 
       1.003436924755e-01       7.687796668721e+02 
       1.039215363818e-01       7.324469668368e+02 
       1.075830067247e-01       6.990766178729e+02 
       1.113356919542e-01       6.680094935481e+02 
       1.151868399990e-01       6.385430359363e+02 
       1.191434515316e-01       6.100104707376e+02 
       1.232123495480e-01       5.818720702513e+02 
       1.274002315409e-01       5.537951145236e+02 
       1.317137087072e-01       5.256923182910e+02 
       1.361593354238e-01       4.977403067220e+02 
       1.407436314281e-01       4.703211200356e+02 
       1.454730986057e-01       4.439171420925e+02 
       1.503542339358e-01       4.189960768445e+02 
       1.553935399101e-01       3.959019250277e+02 
       1.605975335876e-01       3.747382032913e+02 
       1.659727553516e-01       3.553450782186e+02 
       1.715257783735e-01       3.373790240228e+02 
       1.772632197479e-01       3.203881523065e+02 
       1.831917542421e-01       3.039422863681e+02 
       1.893181315862e-01       2.877897658977e+02 
       1.956491982173e-01       2.718865784434e+02 
       2.021919243887e-01       2.564134426851e+02 
       2.089534375534e-01       2.415796120099e+02 
       2.159410629403e-01       2.276824531020e+02 
       2.231623722723e-01       2.148763493350e+02 
       2.306252416238e-01       2.029789187040e+02 
       2.383379195094e-01       1.917910992214e+02 
       2.463091064296e-01       1.811138190051e+02 
       2.545480473104e-01       1.708062604529e+02 
       2.630646385641e-01       1.609072208791e+02 
       2.718695519064e-01       1.515730305193e+02 
       2.809743776116e-01       1.427998288729e+02 
       2.903917906265e-01       1.345245593851e+02 
       3.001357439331e-01       1.267631269664e+02 
       3.102216948415e-01       1.194381965011e+02 
       3.206668715968e-01       1.124458460585e+02 
       3.314905899502e-01       1.058368809929e+02 
       3.427146323772e-01       9.959075314320e+01 
       3.543637067264e-01       9.368852261148e+01 
       3.664660066858e-01       8.813075381435e+01 
       3.790539042177e-01       8.285444199610e+01 
       3.921648150073e-01       7.787466568278e+01 
       4.058422935167e-01       7.313793554920e+01 
       4.201374367748e-01       6.866367796919e+01 
       4.351107093077e-01       6.442025260042e+01 
       4.508343517302e-01       6.039469889141e+01 
       4.673956126086e-01       5.655775101510e+01 
       4.849011646671e-01       5.292015400124e+01 
       5.034832628360e-01       4.944451873480e+01 
       5.233085287291e-01       4.612434323338e+01 
       5.445908089208e-01       4.294801432946e+01 
       5.676105590421e-01       3.989315793841e+01 
       5.927450755461e-01       3.694330380760e+01 
       6.205175458965e-01       3.407982287995e+01 
       6.516804027593e-01       3.128020511123e+01 
       6.873649166599e-01       2.851615971726e+01 
       7.293674766099e-01       2.575275597413e+01 
       7.807396713794e-01       2.294392556550e+01 
       8.471050068889e-01       2.002252598461e+01 
       9.397710499522e-01       1.689716414643e+01 
       1.082392967423e+00       1.350098584924e+01 
       1.313425206648e+00       1.005532811520e+01 
       1.646191086730e+00       7.248961318922e+00 
       2.072209279051e+00       5.268893599280e+00 
       2.608755512964e+00       3.862022211716e+00 
       3.284228607023e+00       2.835035871995e+00 
       4.134598851523e+00       2.069171503002e+00 
       5.205151561757e+00       1.491247947120e+00 
       6.552897573336e+00       1.055002316566e+00 
       8.249609275957e+00       7.293795245025e-01 
       1.038564275488e+01       4.913924552940e-01 
