# Matter power spectrum P(k) at redshift z=2
# for k=9.88293e-06 to 12.4591 h/Mpc,
# number of wavenumbers equal to 123
#    1:k (h/Mpc)              2:P (Mpc/h)^3        
       9.882933491091e-06       1.311047409454e+01 
       1.244187611501e-05       1.625127455886e+01 
       1.566339401158e-05       2.014447321026e+01 
       1.971904475612e-05       2.497028125676e+01 
       2.482480653978e-05       3.095205788095e+01 
       3.125257979581e-05       3.836660156703e+01 
       3.934466688906e-05       4.755689812065e+01 
       4.953200096522e-05       5.894785042694e+01 
       6.235709471213e-05       7.306566566054e+01 
       7.850293113875e-05       9.056164937963e+01 
       9.882933491091e-05       1.122412658797e+02 
       1.244187611501e-04       1.390992563691e+02 
       1.566339401158e-04       1.723615046790e+02 
       1.971904475612e-04       2.135336551031e+02 
       2.482480653978e-04       2.644552108346e+02 
       3.125257979581e-04       3.273551463657e+02 
       3.934466688906e-04       4.049003445719e+02 
       4.953200096522e-04       5.002209242097e+02 
       6.235709471213e-04       6.168880426888e+02 
       7.850293113875e-04       7.588153829703e+02 
       9.882933491091e-04       9.300635526695e+02 
       1.244187611501e-03       1.134537046550e+03 
       1.566339401158e-03       1.375507543257e+03 
       1.971904475612e-03       1.654752502463e+03 
       2.482480653978e-03       1.971250629710e+03 
       3.125257979581e-03       2.319811307359e+03 
       3.934466688906e-03       2.689640850218e+03 
       4.953200096522e-03       3.062973989093e+03 
       6.235709471213e-03       3.414292214529e+03 
       7.850293113875e-03       3.710639395620e+03 
       9.882933491091e-03       3.912292549528e+03 
       1.244187611501e-02       3.976413545803e+03 
       1.566339401158e-02       3.861636656334e+03 
       1.971904475383e-02       3.539912849185e+03 
       2.482480152400e-02       3.018808781015e+03 
       3.125093449230e-02       2.371713607463e+03 
       3.923021489788e-02       1.752948866220e+03 
       4.756718756958e-02       1.358870803485e+03 
       5.367308691591e-02       1.191445117977e+03 
       5.838243016760e-02       1.103356358842e+03 
       6.243876261004e-02       1.041797421163e+03 
       6.614611766118e-02       9.894425685201e+02 
       6.965217183622e-02       9.391410184201e+02 
       7.304021305434e-02       8.877884340060e+02 
       7.636252402076e-02       8.343515981235e+02 
       7.965466761539e-02       7.790295283187e+02 
       8.294241804847e-02       7.227886955657e+02 
       8.624545726908e-02       6.670311195757e+02 
       8.957949547798e-02       6.133264985648e+02 
       9.295755992722e-02       5.631695928622e+02 
       9.639081564386e-02       5.178347359212e+02 
       9.988910845717e-02       4.781963968807e+02 
       1.034613358227e-01       4.446936694081e+02 
       1.071157067461e-01       4.172831615258e+02 
       1.108599279010e-01       3.954447345447e+02 
       1.147013391914e-01       3.782506830808e+02 
       1.186470137885e-01       3.644270017143e+02 
       1.227038326432e-01       3.524446290987e+02 
       1.268785403104e-01       3.407201102297e+02 
       1.311777868877e-01       3.278383796622e+02 
       1.356081595438e-01       3.127661414518e+02 
       1.401762062337e-01       2.951022441600e+02 
       1.448884536099e-01       2.751852008831e+02 
       1.497514207549e-01       2.540111903741e+02 
       1.547716300973e-01       2.329828186137e+02 
       1.599556167082e-01       2.135498807237e+02 
       1.653099370659e-01       1.968466746878e+02 
       1.708411783069e-01       1.834040248354e+02 
       1.765559689401e-01       1.730957286834e+02 
       1.824609919737e-01       1.651581349389e+02 
       1.885630013868e-01       1.583969641190e+02 
       1.948688428661e-01       1.515520499034e+02 
       2.013854797210e-01       1.436624796731e+02 
       2.081200248888e-01       1.344116070898e+02 
       2.150797799493e-01       1.243030142854e+02 
       2.222722820912e-01       1.142693647859e+02 
       2.297053600191e-01       1.052959703258e+02 
       2.373871998690e-01       9.793086910941e+01 
       2.453264223305e-01       9.203133512008e+01 
       2.535321723594e-01       8.699631130956e+01 
       2.620142231430e-01       8.218970851122e+01 
       2.707830963543e-01       7.713997288379e+01 
       2.798502012518e-01       7.171582820287e+01 
       2.892279958690e-01       6.628621675725e+01 
       2.989301744587e-01       6.136867703692e+01 
       3.089718865684e-01       5.715632308288e+01 
       3.193699947309e-01       5.352697816603e+01 
       3.301433798834e-01       5.013459853001e+01 
       3.413133064800e-01       4.670086044366e+01 
       3.529038631002e-01       4.329667488681e+01 
       3.649424995975e-01       4.008804536657e+01 
       3.774606890606e-01       3.721713574470e+01 
       3.904947529811e-01       3.463072544548e+01 
       4.040869024031e-01       3.215543216338e+01 
       4.182865686104e-01       2.974722396299e+01 
       4.331521274468e-01       2.747671967354e+01 
       4.487531671611e-01       2.539098865672e+01 
       4.651735197598e-01       2.343291618480e+01 
       4.825153856773e-01       2.156904008580e+01 
       5.009050580975e-01       1.980771363248e+01 
       5.205010452167e-01       1.814434977046e+01 
       5.415058872220e-01       1.657691313076e+01 
       5.641838469628e-01       1.508123725401e+01 
       5.888882792018e-01       1.365969622531e+01 
       6.161056210261e-01       1.230036790437e+01 
       6.465293265891e-01       1.099174732304e+01 
       6.811908376196e-01       9.725063124148e+00 
       7.217064220260e-01       8.487382447221e+00 
       7.707771752187e-01       7.261169822256e+00 
       8.332853716553e-01       6.028342138210e+00 
       9.188663725865e-01       4.765563366720e+00 
       1.047724972158e+00       3.465075386173e+00 
       1.256537023836e+00       2.217040416278e+00 
       1.568959160764e+00       1.274469155015e+00 
       1.974645150142e+00       7.123094621380e-01 
       2.485925867563e+00       3.948086612051e-01 
       3.129595238576e+00       2.173317241405e-01 
       3.939926974472e+00       1.189140595817e-01 
       4.960074188777e+00       6.471961273689e-02 
       6.244363440635e+00       3.506028692119e-02 
       7.861187815894e+00       1.891522504725e-02 
       9.896649108316e+00       1.016734871241e-02 
       1.245914305407e+01       5.447229190280e-03 
