# Matter power spectrum P(k) at redshift z=2
# for k=8.11481e-06 to 10.2279 h/Mpc,
# number of wavenumbers equal to 123
#    1:k (h/Mpc)              2:P (Mpc/h)^3        
       8.114806764558e-06       2.077841036666e+01 
       1.021593644770e-05       2.598851836236e+01 
       1.286110199929e-05       3.250500333968e+01 
       1.619116813058e-05       4.065538682035e+01 
       2.038347300622e-05       5.084928377489e+01 
       2.566127214815e-05       6.359890359204e+01 
       3.230562760627e-05       7.954472372597e+01 
       4.067037553749e-05       9.948744767395e+01 
       5.120096927136e-05       1.244278372517e+02 
       6.445820132420e-05       1.556161637107e+02 
       8.114806764558e-05       1.946133818041e+02 
       1.021593644770e-04       2.433662870230e+02 
       1.286110199929e-04       3.042988790164e+02 
       1.619116813058e-04       3.804215227028e+02 
       2.038347300622e-04       4.754577036968e+02 
       2.566127214815e-04       5.939842827226e+02 
       3.230562760627e-04       7.415738621333e+02 
       4.067037553749e-04       9.249162851159e+02 
       5.120096927136e-04       1.151881928201e+03 
       6.445820132420e-04       1.431479555705e+03 
       8.114806764558e-04       1.773665153720e+03 
       1.021593644770e-03       2.188904418885e+03 
       1.286110199929e-03       2.687477586489e+03 
       1.619116813058e-03       3.277857097301e+03 
       2.038347300622e-03       3.964172497210e+03 
       2.566127214815e-03       4.743156564267e+03 
       3.230562760627e-03       5.600260216508e+03 
       4.067037553749e-03       6.504653904711e+03 
       5.120096927136e-03       7.404180916064e+03 
       6.445820132420e-03       8.221070625493e+03 
       8.114806764558e-03       8.846505487311e+03 
       1.021593644770e-02       9.142691374068e+03 
       1.286110199928e-02       8.953814760500e+03 
       1.619116809181e-02       8.151267357252e+03 
       2.038343296244e-02       6.733772495127e+03 
       2.565416540998e-02       4.965223136032e+03 
       3.201105170897e-02       3.427538724725e+03 
       3.774086684206e-02       2.670296948098e+03 
       4.184802600970e-02       2.398535310685e+03 
       4.517382211069e-02       2.281515984921e+03 
       4.811486075131e-02       2.219430946619e+03 
       5.084273052338e-02       2.173450347492e+03 
       5.344606010377e-02       2.124272640313e+03 
       5.597707380414e-02       2.061275625577e+03 
       5.846963120919e-02       1.979180464731e+03 
       6.094735079128e-02       1.876731005051e+03 
       6.342770485928e-02       1.755839551257e+03 
       6.592426819708e-02       1.621035242357e+03 
       6.844803802666e-02       1.478607058509e+03 
       7.100825120814e-02       1.335678349976e+03 
       7.361291255533e-02       1.199361588345e+03 
       7.626914877113e-02       1.075795940418e+03 
       7.898345264465e-02       9.696825960816e+02 
       8.176185567082e-02       8.838103816063e+02 
       8.461005250032e-02       8.191417371621e+02 
       8.753349206700e-02       7.748563597383e+02 
       9.053744509674e-02       7.485632198229e+02 
       9.362705451983e-02       7.363277711115e+02 
       9.680737329035e-02       7.328507512961e+02 
       1.000833928108e-01       7.316513874188e+02 
       1.034600643019e-01       7.258866223778e+02 
       1.069423148901e-01       7.094881846732e+02 
       1.105350598044e-01       6.786641792272e+02 
       1.142432118235e-01       6.331543629086e+02 
       1.180716889492e-01       5.765032644474e+02 
       1.220254211702e-01       5.151779169398e+02 
       1.261093571158e-01       4.567255452365e+02 
       1.303284713525e-01       4.076895585056e+02 
       1.346877730514e-01       3.720078223879e+02 
       1.391923167356e-01       3.504959567258e+02 
       1.438472158069e-01       3.410086189941e+02 
       1.486576595431e-01       3.387917856658e+02 
       1.536289342528e-01       3.367682763802e+02 
       1.587664492759e-01       3.284028415347e+02 
       1.640757685273e-01       3.102840610417e+02 
       1.695626483049e-01       2.835520210752e+02 
       1.752330821256e-01       2.531095839712e+02 
       1.810933534255e-01       2.253163551425e+02 
       1.871500970734e-01       2.050428265786e+02 
       1.934103708100e-01       1.935502510745e+02 
       1.998817379594e-01       1.883114005042e+02 
       2.065723630811e-01       1.844974230204e+02 
       2.134911226620e-01       1.771460337685e+02 
       2.206477335316e-01       1.642615207122e+02 
       2.280529024469e-01       1.483038248405e+02 
       2.357185013104e-01       1.337249068626e+02 
       2.436577738283e-01       1.235853859615e+02 
       2.518855812020e-01       1.177677809496e+02 
       2.604186968431e-01       1.132700597587e+02 
       2.692761633477e-01       1.069787266652e+02 
       2.784797294044e-01       9.824410820996e+01 
       2.880543904792e-01       8.930330117979e+01 
       2.980290657921e-01       8.248114007543e+01 
       3.084374565046e-01       7.778226126402e+01 
       3.193191480635e-01       7.331653489684e+01 
       3.307210463445e-01       6.778075843958e+01 
       3.426992775560e-01       6.189239855715e+01 
       3.553217441058e-01       5.709194436373e+01 
       3.686716270511e-01       5.324760664170e+01 
       3.828522855747e-01       4.913260278187e+01 
       3.979942712903e-01       4.477249165567e+01 
       4.142656375719e-01       4.102959316309e+01 
       4.318875543618e-01       3.758936374044e+01 
       4.511587944272e-01       3.400288393693e+01 
       4.724957154632e-01       3.069155645607e+01 
       4.965007152132e-01       2.749537470872e+01 
       5.240861758973e-01       2.432696613796e+01 
       5.567141277273e-01       2.123678215626e+01 
       5.968960264047e-01       1.813511178868e+01 
       6.493204260111e-01       1.496870626041e+01 
       7.235229223164e-01       1.167824381504e+01 
       8.392913828334e-01       8.287476685798e+00 
       1.025737573288e+00       5.191052564400e+00 
       1.287685450860e+00       3.038048645253e+00 
       1.621011582535e+00       1.757239514569e+00 
       2.040732239098e+00       1.011161767793e+00 
       2.569129674148e+00       5.788811094415e-01 
       3.234342632979e+00       3.296432573477e-01 
       4.071796131107e+00       1.866645321098e-01 
       5.126087621096e+00       1.050830113834e-01 
       6.453361969281e+00       5.880098019957e-02 
       8.124301374634e+00       3.270472365275e-02 
       1.022788945360e+01       1.808560184528e-02 
