# Matter power spectrum P(k) at redshift z=0.5
# for k=1.02004e-05 to 10.2126 h/Mpc,
# number of wavenumbers equal to 122
#    1:k (h/Mpc)              2:P (Mpc/h)^3        
       1.020039974860e-05       2.986932776624e+01 
       1.284154245398e-05       3.721988727195e+01 
       1.616654412194e-05       4.637928960273e+01 
       2.035247321601e-05       5.779267028936e+01 
       2.562224572449e-05       7.201461872578e+01 
       3.225649624980e-05       8.973612938160e+01 
       4.060852282431e-05       1.118180862551e+02 
       5.112310131895e-05       1.393329021338e+02 
       6.436017138015e-05       1.736162740326e+02 
       8.102465525790e-05       2.163313408683e+02 
       1.020039974860e-04       2.695480747950e+02 
       1.284154245398e-04       3.358410071061e+02 
       1.616654412194e-04       4.184087968644e+02 
       2.035247321601e-04       5.212189013701e+02 
       2.562224572449e-04       6.491797614272e+02 
       3.225649624980e-04       8.083405502744e+02 
       4.060852282431e-04       1.006114083726e+03 
       5.112310131895e-04       1.251511762566e+03 
       6.436017138015e-04       1.555371437232e+03 
       8.102465525790e-04       1.930550233580e+03 
       1.020039974860e-03       2.392032080562e+03 
       1.284154245398e-03       2.956819023080e+03 
       1.616654412194e-03       3.643262558783e+03 
       2.035247321601e-03       4.470170107858e+03 
       2.562224572449e-03       5.454377257065e+03 
       3.225649624980e-03       6.607419449594e+03 
       4.060852282431e-03       7.930576379334e+03 
       5.112310131895e-03       9.378807350569e+03 
       6.436017138015e-03       1.095346870292e+04 
       8.102465525790e-03       1.255499211584e+04 
       1.020039974860e-02       1.405130973569e+04 
       1.284154245398e-02       1.525494025103e+04 
       1.616654412157e-02       1.592635009063e+04 
       2.035247199521e-02       1.582067599409e+04 
       2.562169416715e-02       1.480760044945e+04 
       3.220659673566e-02       1.306616361608e+04 
       3.949362915993e-02       1.132412090718e+04 
       4.505820810053e-02       1.032471882435e+04 
       4.923960418606e-02       9.744389591058e+03 
       5.278554360996e-02       9.330705922907e+03 
       5.599909666523e-02       8.991077825868e+03 
       5.902269307088e-02       8.683116337239e+03 
       6.193476995540e-02       8.383620513788e+03 
       6.478371960457e-02       8.081022740528e+03 
       6.760202382391e-02       7.769308619089e+03 
       7.041297284842e-02       7.446323549927e+03 
       7.323419324948e-02       7.114415903218e+03 
       7.607964735493e-02       6.778010411431e+03 
       7.896083671288e-02       6.443241471764e+03 
       8.188756244293e-02       6.117206216207e+03 
       8.486842505714e-02       5.806934611597e+03 
       8.791116394846e-02       5.519063519851e+03 
       9.102289429824e-02       5.258345757752e+03 
       9.421027610469e-02       5.027687096388e+03 
       9.747963694874e-02       4.827422228851e+03 
       1.008370623968e-01       4.655114753072e+03 
       1.042884632397e-01       4.505996508745e+03 
       1.078396258265e-01       4.372799920941e+03 
       1.114962498664e-01       4.246902150950e+03 
       1.152639768461e-01       4.119585453375e+03 
       1.191484114002e-01       3.982992685612e+03 
       1.231551374303e-01       3.832172778346e+03 
       1.272897304146e-01       3.666059433919e+03 
       1.315577671061e-01       3.488042427704e+03 
       1.359648336658e-01       3.305391279016e+03 
       1.405165331756e-01       3.127505458021e+03 
       1.452184934088e-01       2.963565220484e+03 
       1.500763757012e-01       2.820388679676e+03 
       1.550958857364e-01       2.700387006133e+03 
       1.602827870465e-01       2.601010991711e+03 
       1.656429180142e-01       2.515138021623e+03 
       1.711822131619e-01       2.433693930887e+03 
       1.769067295037e-01       2.347436131523e+03 
       1.828226787461e-01       2.250449165405e+03 
       1.889364661391e-01       2.143373011941e+03 
       1.952547368121e-01       2.032943801005e+03 
       2.017844304952e-01       1.928229998766e+03 
       2.085328456240e-01       1.835963012124e+03 
       2.155077139792e-01       1.758462411030e+03 
       2.227172872312e-01       1.692999767307e+03 
       2.301704370654e-01       1.632484821290e+03 
       2.378767709812e-01       1.569738613651e+03 
       2.458467664186e-01       1.501854198891e+03 
       2.540919266120e-01       1.431214158380e+03 
       2.626249625558e-01       1.363640710812e+03 
       2.714600067712e-01       1.304097232219e+03 
       2.806128662922e-01       1.252525717039e+03 
       2.901013245985e-01       1.204938496312e+03 
       2.999455053264e-01       1.156977712235e+03 
       3.101683148206e-01       1.107290276723e+03 
       3.207959864046e-01       1.058625366173e+03 
       3.318587573813e-01       1.013927220070e+03 
       3.433917212835e-01       9.735307018480e+02 
       3.554359144810e-01       9.348744817786e+02 
       3.680397205486e-01       8.961845637361e+02 
       3.812607120873e-01       8.581503741683e+02 
       3.951681050248e-01       8.223410402734e+02 
       4.098460867221e-01       7.885578471356e+02 
       4.253984172637e-01       7.555688195006e+02 
       4.419549303588e-01       7.230168953881e+02 
       4.596809455904e-01       6.916030514906e+02 
       4.787912809339e-01       6.611508120828e+02 
       4.995717927573e-01       6.309112908433e+02 
       5.224137389463e-01       6.010364134418e+02 
       5.478710284147e-01       5.712521492451e+02 
       5.767605907074e-01       5.410643004811e+02 
       6.103492519865e-01       5.100948760526e+02 
       6.507270103951e-01       4.775661120351e+02 
       7.016135853497e-01       4.423694532131e+02 
       7.702328880464e-01       4.026503004980e+02 
       8.716632866864e-01       3.554939700294e+02 
       1.035002208616e+00       2.981740902881e+02 
       1.286451946962e+00       2.358239854951e+02 
       1.618591804555e+00       1.796742467385e+02 
       2.037674664976e+00       1.322466636030e+02 
       2.565280390808e+00       9.362414764612e+01 
       3.229496672358e+00       6.378159039272e+01 
       4.065695428137e+00       4.200711902215e+01 
       5.118407291097e+00       2.690967075977e+01 
       6.443693006674e+00       1.686558893259e+01 
       8.112128871903e+00       1.039474647382e+01 
       1.021256518059e+01       6.326272012066e+00 
