# Matter power spectrum P(k) at redshift z=2
# for k=1.07811e-05 to 10.7948 h/Mpc,
# number of wavenumbers equal to 122
#    1:k (h/Mpc)              2:P (Mpc/h)^3        
       1.078111866024e-05       6.652219018898e+00 
       1.357262424895e-05       8.338657271754e+00 
       1.708692157173e-05       1.045262764342e+01 
       2.151115977599e-05       1.310250804533e+01 
       2.708094567916e-05       1.642414570036e+01 
       3.409289069091e-05       2.058781233275e+01 
       4.292040645231e-05       2.580691483503e+01 
       5.403359036734e-05       3.234890375376e+01 
       6.802426000392e-05       4.054891439820e+01 
       8.563746953743e-05       5.082680982753e+01 
       1.078111866024e-04       6.370843313030e+01 
       1.357262424895e-04       7.985201518298e+01 
       1.708692157173e-04       1.000808466063e+02 
       2.151115977599e-04       1.254233631488e+02 
       2.708094567916e-04       1.571617324654e+02 
       3.409289069091e-04       1.968895954889e+02 
       4.292040645231e-04       2.465785861256e+02 
       5.403359036734e-04       3.086512887200e+02 
       6.802426000392e-04       3.860552487399e+02 
       8.563746953743e-04       4.823290908327e+02 
       1.078111866024e-03       6.016489078108e+02 
       1.357262424895e-03       7.488384080897e+02 
       1.708692157173e-03       9.292678586933e+02 
       2.151115977599e-03       1.148693300721e+03 
       2.708094567916e-03       1.412675102858e+03 
       3.409289069091e-03       1.725763812118e+03 
       4.292040645231e-03       2.090222295787e+03 
       5.403359036734e-03       2.500361006351e+03 
       6.802426000392e-03       2.953153492908e+03 
       8.563746953743e-03       3.427217463207e+03 
       1.078111866024e-02       3.889463146602e+03 
       1.357262424895e-02       4.290111539180e+03 
       1.708692157105e-02       4.562409261549e+03 
       2.151115782942e-02       4.633471354731e+03 
       2.708015612690e-02       4.455183157284e+03 
       3.402749325750e-02       4.058940211180e+03 
       4.158098764538e-02       3.630535511386e+03 
       4.725648914510e-02       3.370858085341e+03 
       5.155833063571e-02       3.209383048094e+03 
       5.522614011583e-02       3.088275397139e+03 
       5.855984303972e-02       2.985244562269e+03 
       6.170197153524e-02       2.889808727940e+03 
       6.473165753201e-02       2.796350649365e+03 
       6.769800935598e-02       2.701799439543e+03 
       7.063413781060e-02       2.604672467986e+03 
       7.356387001723e-02       2.504729719445e+03 
       7.650529325792e-02       2.402462445504e+03 
       7.947277168067e-02       2.299104215529e+03 
       8.247816414768e-02       2.196335936483e+03 
       8.553159572539e-02       2.096027667711e+03 
       8.864196593957e-02       2.000103569314e+03 
       9.181729461834e-02       1.910250952026e+03 
       9.506496359454e-02       1.827757599467e+03 
       9.839188936480e-02       1.753334571798e+03 
       1.018046486125e-01       1.687001502369e+03 
       1.053095707072e-01       1.628041789779e+03 
       1.089128065376e-01       1.575058577283e+03 
       1.126203800522e-01       1.526060423775e+03 
       1.164382269730e-01       1.478735269768e+03 
       1.203722238987e-01       1.430754124333e+03 
       1.244282101913e-01       1.380188208437e+03 
       1.286120044922e-01       1.325906764711e+03 
       1.329294173503e-01       1.267866997126e+03 
       1.373862611992e-01       1.207185154371e+03 
       1.419883587667e-01       1.145907685358e+03 
       1.467415508951e-01       1.086568312615e+03 
       1.516517046852e-01       1.031568051083e+03 
       1.567247228395e-01       9.825791450034e+02 
       1.619665550529e-01       9.400250152291e+02 
       1.673832122819e-01       9.030193820549e+02 
       1.729807847167e-01       8.694765496561e+02 
       1.787654642668e-01       8.369308831437e+02 
       1.847435723760e-01       8.031407339322e+02 
       1.909215939826e-01       7.667884162206e+02 
       1.973062184621e-01       7.283142184956e+02 
       2.039043884265e-01       6.897005971460e+02 
       2.107233573227e-01       6.533317351076e+02 
       2.177707568795e-01       6.208122591976e+02 
       2.250546756129e-01       5.924861823692e+02 
       2.325837498365e-01       5.673599446533e+02 
       2.403672689455e-01       5.435336027237e+02 
       2.484152971861e-01       5.192346812302e+02 
       2.567388147193e-01       4.939712440240e+02 
       2.653498815761e-01       4.685698335707e+02 
       2.742618291463e-01       4.445359725556e+02 
       2.834894852283e-01       4.229851938511e+02 
       2.930494404977e-01       4.037080037480e+02 
       3.029603667044e-01       3.855279677374e+02 
       3.132434002049e-01       3.674133482673e+02 
       3.239226089282e-01       3.491982048936e+02 
       3.350255670624e-01       3.316706325654e+02 
       3.465840703987e-01       3.154953517325e+02 
       3.586350375349e-01       3.005910880751e+02 
       3.712216598245e-01       2.862629276963e+02 
       3.843948888953e-01       2.721284259164e+02 
       3.982153893530e-01       2.584607868937e+02 
       4.127561434985e-01       2.456005212269e+02 
       4.281059873986e-01       2.333958391743e+02 
       4.443745058502e-01       2.215438909401e+02 
       4.616989579844e-01       2.100022440914e+02 
       4.802543205125e-01       1.989266722824e+02 
       5.002682671105e-01       1.882216834517e+02 
       5.220442435112e-01       1.777071353603e+02 
       5.459983704711e-01       1.674254150380e+02 
       5.727211027690e-01       1.572682621277e+02 
       6.030856987563e-01       1.471150759475e+02 
       6.384509898203e-01       1.368527156331e+02 
       6.810682814405e-01       1.262687638721e+02 
       7.349648817297e-01       1.150736614599e+02 
       8.080043988686e-01       1.028142105213e+02 
       9.166344385901e-01       8.887348167838e+01 
       1.092033198585e+00       7.302969897061e+01 
       1.359620676943e+00       5.734525023024e+01 
       1.710866651612e+00       4.432529652206e+01 
       2.153844677777e+00       3.378268750744e+01 
       2.711529780493e+00       2.519260852885e+01 
       3.413613745495e+00       1.826324656431e+01 
       4.297485090253e+00       1.281309850830e+01 
       5.410213186926e+00       8.684054553097e+00 
       6.811054864245e+00       5.694668027976e+00 
       8.574610049723e+00       3.628148357124e+00 
       1.079479448782e+01       2.257055792673e+00 
