# Matter power spectrum P(k) at redshift z=0.5
# for k=8.94476e-06 to 11.2722 h/Mpc,
# number of wavenumbers equal to 123
#    1:k (h/Mpc)              2:P (Mpc/h)^3        
       8.944764124605e-06       4.841190930978e+01 
       1.126079085897e-05       6.031725938578e+01 
       1.417649576926e-05       7.515025831865e+01 
       1.784715077411e-05       9.363069210625e+01 
       2.246823163765e-05       1.166554514868e+02 
       2.828582776671e-05       1.453416384279e+02 
       3.560974736915e-05       1.810806765371e+02 
       4.483001587059e-05       2.256054303731e+02 
       5.643764619063e-05       2.810733392655e+02 
       7.105078697123e-05       3.501693745364e+02 
       8.944764124605e-05       4.362328151684e+02 
       1.126079085897e-04       5.434124178140e+02 
       1.417649576926e-04       6.768543312597e+02 
       1.784715077411e-04       8.429258655088e+02 
       2.246823163765e-04       1.049474935025e+03 
       2.828582776671e-04       1.306118182696e+03 
       3.560974736915e-04       1.624539223882e+03 
       4.483001587059e-04       2.018762628469e+03 
       5.643764619063e-04       2.505353484909e+03 
       7.105078697123e-04       3.103479634098e+03 
       8.944764124605e-04       3.834733001475e+03 
       1.126079085897e-03       4.722447662877e+03 
       1.417649576926e-03       5.789970934020e+03 
       1.784715077411e-03       7.057868717192e+03 
       2.246823163765e-03       8.539376936483e+03 
       2.828582776671e-03       1.023400632913e+04 
       3.560974736915e-03       1.211952881689e+04 
       4.483001587059e-03       1.414161995177e+04 
       5.643764619063e-03       1.620168189075e+04 
       7.105078697123e-03       1.815140121232e+04 
       8.944764124605e-03       1.977257923142e+04 
       1.126079085897e-02       2.078836561011e+04 
       1.417649576922e-02       2.087969285248e+04 
       1.784715058257e-02       1.976989846015e+04 
       2.246809652456e-02       1.740349212548e+04 
       2.826825075651e-02       1.420004985888e+04 
       3.505673590644e-02       1.125308728164e+04 
       4.069281819804e-02       9.678848228687e+03 
       4.479677524347e-02       8.924782561159e+03 
       4.819505636341e-02       8.459212163901e+03 
       5.123585924351e-02       8.106529514268e+03 
       5.407551886562e-02       7.795525922135e+03 
       5.679724159193e-02       7.489682237714e+03 
       5.945111693897e-02       7.170766658878e+03 
       6.207014531184e-02       6.831092818442e+03 
       6.467763939370e-02       6.469144287093e+03 
       6.729102624403e-02       6.090446196641e+03 
       6.992396580523e-02       5.702452271941e+03 
       7.258760892106e-02       5.316086997400e+03 
       7.529138348738e-02       4.942547610697e+03 
       7.804350659706e-02       4.592886586767e+03 
       8.085132981727e-02       4.276152296352e+03 
       8.372157866002e-02       3.998959535946e+03 
       8.666052258529e-02       3.764864351614e+03 
       8.967409798438e-02       3.573503032563e+03 
       9.276799846984e-02       3.420754316067e+03 
       9.594774188956e-02       3.299491662674e+03 
       9.921872042828e-02       3.199190130769e+03 
       1.025862382150e-01       3.108037077429e+03 
       1.060555395917e-01       3.013315055445e+03 
       1.096318303676e-01       2.904111436915e+03 
       1.133202938313e-01       2.773310428433e+03 
       1.171261029242e-01       2.619505489343e+03 
       1.210544297368e-01       2.447662778635e+03 
       1.251104533241e-01       2.267647553175e+03 
       1.292993667390e-01       2.092529852588e+03 
       1.336263841081e-01       1.934557469651e+03 
       1.380967485404e-01       1.802477424101e+03 
       1.427157416280e-01       1.699482729432e+03 
       1.474886952842e-01       1.622232969375e+03 
       1.524210066531e-01       1.561702260732e+03 
       1.575181568164e-01       1.506343395722e+03 
       1.627857340207e-01       1.444386317616e+03 
       1.682294621515e-01       1.367862744873e+03 
       1.738552351907e-01       1.277160756935e+03 
       1.796691584240e-01       1.180365199651e+03 
       1.856775972152e-01       1.088693524060e+03 
       1.918872342464e-01       1.010677695652e+03 
       1.983051362537e-01       9.494270914818e+02 
       2.049388314717e-01       9.022157331092e+02 
       2.117963992633e-01       8.610483692204e+02 
       2.188865737717e-01       8.171099329448e+02 
       2.262188639129e-01       7.662600885920e+02 
       2.338036926760e-01       7.108947256499e+02 
       2.416525595506e-01       6.575729440333e+02 
       2.497782310282e-01       6.123628993756e+02 
       2.581949656268e-01       5.759279261442e+02 
       2.669187818728e-01       5.439477918193e+02 
       2.759677803604e-01       5.114748803555e+02 
       2.853625346335e-01       4.764611673812e+02 
       2.951265706257e-01       4.416098173872e+02 
       3.052869613320e-01       4.104129787698e+02 
       3.158750731756e-01       3.836824253582e+02 
       3.269275145844e-01       3.588592978096e+02 
       3.384873577784e-01       3.337957892053e+02 
       3.506057352291e-01       3.089687706887e+02 
       3.633439584466e-01       2.861093535033e+02 
       3.767763783876e-01       2.653402583631e+02 
       3.909943206365e-01       2.455102466336e+02 
       4.061116144516e-01       2.260082371659e+02 
       4.222725477976e-01       2.075866343422e+02 
       4.396636257202e-01       1.904001153011e+02 
       4.585314963459e-01       1.736776865527e+02 
       4.792112747629e-01       1.576117565064e+02 
       5.021732022058e-01       1.422123097355e+02 
       5.281033694743e-01       1.271463493105e+02 
       5.580516802195e-01       1.124356154919e+02 
       5.937220861353e-01       9.781446379322e+01 
       6.380875141004e-01       8.309910283458e+01 
       6.967971643154e-01       6.797918075983e+01 
       7.814975230748e-01       5.218935487912e+01 
       9.158310091626e-01       3.604443475208e+01 
       1.128886811634e+00       2.195780431820e+01 
       1.419120837792e+00       1.265333218297e+01 
       1.786530382374e+00       7.204298854106e+00 
       2.249108369237e+00       4.069782813572e+00 
       2.831459679849e+00       2.282800806657e+00 
       3.564596543433e+00       1.272287238305e+00 
       4.487561171321e+00       7.048713005975e-01 
       5.649504795557e+00       3.884238086084e-01 
       7.112305151180e+00       2.129906996082e-01 
       8.953861691255e+00       1.162614392168e-01 
       1.127224401681e+01       6.319203073209e-02 
