# Matter power spectrum P(k) at redshift z=2.5
# for k=8.61171e-06 to 10.8555 h/Mpc,
# number of wavenumbers equal to 123
#    1:k (h/Mpc)              2:P (Mpc/h)^3        
       8.611710374114e-06       1.423561433208e+01 
       1.084150102898e-05       1.779285463405e+01 
       1.364864114738e-05       2.223897317173e+01 
       1.718262117690e-05       2.779606136863e+01 
       2.163163844083e-05       3.474169095640e+01 
       2.723261933190e-05       4.342274670119e+01 
       3.428383650665e-05       5.427270732715e+01 
       4.316079299202e-05       6.783319402089e+01 
       5.433621909084e-05       8.478083321113e+01 
       6.840524699427e-05       1.059606385628e+02 
       8.611710374114e-05       1.324274354156e+02 
       1.084150102898e-04       1.654969672949e+02 
       1.364864114738e-04       2.068085203433e+02 
       1.718262117690e-04       2.584007252801e+02 
       2.163163844083e-04       3.228015640963e+02 
       2.723261933190e-04       4.031319065504e+02 
       3.428383650665e-04       5.032184286286e+02 
       4.316079299202e-04       6.277056893729e+02 
       5.433621909084e-04       7.821484145359e+02 
       6.840524699427e-04       9.730560719942e+02 
       8.611710374114e-04       1.207858094362e+03 
       1.084150102898e-03       1.494756000042e+03 
       1.364864114738e-03       1.842376940207e+03 
       1.718262117690e-03       2.258990698296e+03 
       2.163163844083e-03       2.751173649847e+03 
       2.723261933190e-03       3.321791924585e+03 
       3.428383650665e-03       3.967365985758e+03 
       4.316079299202e-03       4.671179904000e+03 
       5.433621909084e-03       5.411096003044e+03 
       6.840524699427e-03       6.139313258025e+03 
       8.611710374114e-03       6.787447378412e+03 
       1.084150102898e-02       7.265205078553e+03 
       1.364864114675e-02       7.465865780148e+03 
       1.718261944643e-02       7.293106623906e+03 
       2.163095602598e-02       6.717482461642e+03 
       2.717738538332e-02       5.857446153675e+03 
       3.317830415695e-02       5.064329232452e+03 
       3.766974067718e-02       4.619864809229e+03 
       4.108190704661e-02       4.350934772314e+03 
       4.399519464955e-02       4.151110711034e+03 
       4.664509405640e-02       3.981635273824e+03 
       4.914384219840e-02       3.825115680414e+03 
       5.155388269701e-02       3.672753694117e+03 
       5.391402651900e-02       3.520174144763e+03 
       5.625047222841e-02       3.365683543170e+03 
       5.858209055889e-02       3.209373895395e+03 
       6.092321765482e-02       3.052607930689e+03 
       6.328524632979e-02       2.897575865683e+03 
       6.567758781715e-02       2.746896941481e+03 
       6.810828144919e-02       2.603280126867e+03 
       7.058439654161e-02       2.469155195571e+03 
       7.311230598579e-02       2.346411838264e+03 
       7.569787753130e-02       2.236109789916e+03 
       7.834661047092e-02       2.138370142820e+03 
       8.106373503539e-02       2.052267214726e+03 
       8.385428565231e-02       1.975897698795e+03 
       8.672315546812e-02       1.906548158922e+03 
       8.967513717650e-02       1.840988463577e+03 
       9.271495368615e-02       1.775900583717e+03 
       9.584728117562e-02       1.708391645389e+03 
       9.907676643181e-02       1.636546433126e+03 
       1.024080399355e-01       1.559854685867e+03 
       1.058457258694e-01       1.479383767686e+03 
       1.093944500317e-01       1.397584204944e+03 
       1.130588465156e-01       1.317725692520e+03 
       1.168435639305e-01       1.243072401413e+03 
       1.207532718938e-01       1.176126629752e+03 
       1.247926684876e-01       1.117854674360e+03 
       1.289664893550e-01       1.067582920999e+03 
       1.332795190987e-01       1.023042863789e+03 
       1.377366056366e-01       9.810052642671e+02 
       1.423426781594e-01       9.383975655309e+02 
       1.471027693411e-01       8.933693574640e+02 
       1.520220424491e-01       8.457211426119e+02 
       1.571058240235e-01       7.971434625846e+02 
       1.623596428195e-01       7.504682237900e+02 
       1.677892757662e-01       7.082057492628e+02 
       1.734008017760e-01       6.712204574410e+02 
       1.792006643732e-01       6.385350440969e+02 
       1.851957442941e-01       6.082827907162e+02 
       1.913934434712e-01       5.785600518307e+02 
       1.978017821706e-01       5.481608694136e+02 
       2.044295115236e-01       5.174379880452e+02 
       2.112862443290e-01       4.879142755377e+02 
       2.183826078356e-01       4.608636694348e+02 
       2.257304233214e-01       4.365854039539e+02 
       2.333429187505e-01       4.142489382988e+02 
       2.412349827491e-01       3.925302293155e+02 
       2.494234707782e-01       3.710121400204e+02 
       2.579275779737e-01       3.501232343889e+02 
       2.667692980764e-01       3.305562333633e+02 
       2.759739947939e-01       3.125440813329e+02 
       2.855711217584e-01       2.955446725518e+02 
       2.955951413978e-01       2.790851758104e+02 
       3.060867138155e-01       2.631451328574e+02 
       3.170942578474e-01       2.480949213677e+02 
       3.286760339256e-01       2.338855915467e+02 
       3.409029725422e-01       2.202812396193e+02 
       3.538625909777e-01       2.071833920688e+02 
       3.676645369294e-01       1.946101293440e+02 
       3.824486310778e-01       1.825790224597e+02 
       3.983968683065e-01       1.709566604228e+02 
       4.157519154267e-01       1.596695577298e+02 
       4.348467130781e-01       1.486994624216e+02 
       4.561539736929e-01       1.379264717686e+02 
       4.803733362049e-01       1.272650721568e+02 
       5.085944634582e-01       1.165853448431e+02 
       5.426247333335e-01       1.057062412849e+02 
       5.857016912681e-01       9.436931552303e+01 
       6.441558220358e-01       8.219730797077e+01 
       7.312341490619e-01       6.875274726243e+01 
       8.719202334929e-01       5.417809622993e+01 
       1.086022928350e+00       4.076538587164e+01 
       1.366626689554e+00       3.055905230875e+01 
       1.720474621692e+00       2.294674513649e+01 
       2.165949209258e+00       1.713398403632e+01 
       2.726768500187e+00       1.263021013320e+01 
       3.432798156965e+00       9.135390344088e+00 
       4.321636833364e+00       6.452992926499e+00 
       5.440618430067e+00       4.436927138173e+00 
       6.849332797487e+00       2.964030100816e+00 
       8.622799112592e+00       1.923641978947e+00 
       1.085546092364e+01       1.215322973066e+00 
