# Matter power spectrum P(k) at redshift z=2
# for k=8.94476e-06 to 11.2722 h/Mpc,
# number of wavenumbers equal to 123
#    1:k (h/Mpc)              2:P (Mpc/h)^3        
       8.944764124605e-06       1.546899863210e+01 
       1.126079085897e-05       1.927309742948e+01 
       1.417649576926e-05       2.401266768815e+01 
       1.784715077411e-05       2.991773324197e+01 
       2.246823163765e-05       3.727485371764e+01 
       2.828582776671e-05       4.644100237475e+01 
       3.560974736915e-05       5.786083051903e+01 
       4.483001587059e-05       7.208812191381e+01 
       5.643764619063e-05       8.981240965556e+01 
       7.105078697123e-05       1.118919518513e+02 
       8.944764124605e-05       1.393943937453e+02 
       1.126079085897e-04       1.736466482074e+02 
       1.417649576926e-04       2.162954945073e+02 
       1.784715077411e-04       2.693800959152e+02 
       2.246823163765e-04       3.354166572239e+02 
       2.828582776671e-04       4.174932466424e+02 
       3.560974736915e-04       5.193686253070e+02 
       4.483001587059e-04       6.455621177664e+02 
       5.643764619063e-04       8.014126845263e+02 
       7.105078697123e-04       9.930781431143e+02 
       8.944764124605e-04       1.227445166027e+03 
       1.126079085897e-03       1.511915388463e+03 
       1.417649576926e-03       1.853937614342e+03 
       1.784715077411e-03       2.260126942753e+03 
       2.246823163765e-03       2.734713437360e+03 
       2.828582776671e-03       3.277545472047e+03 
       3.560974736915e-03       3.881502859483e+03 
       4.483001587059e-03       4.529188432507e+03 
       5.643764619063e-03       5.186885700606e+03 
       7.105078697123e-03       5.810196408246e+03 
       8.944764124605e-03       6.328272374830e+03 
       1.126079085897e-02       6.652469228779e+03 
       1.417649576922e-02       6.680992796802e+03 
       1.784715058257e-02       6.325412586779e+03 
       2.246809652456e-02       5.568192963654e+03 
       2.826825075651e-02       4.544367428424e+03 
       3.505673590644e-02       3.603626828232e+03 
       4.069281819804e-02       3.101912853015e+03 
       4.479677524347e-02       2.862120693031e+03 
       4.819505636341e-02       2.714312603823e+03 
       5.123585924351e-02       2.602672699315e+03 
       5.407551886562e-02       2.504118953212e+03 
       5.679724159193e-02       2.407209459129e+03 
       5.945111693897e-02       2.306080305226e+03 
       6.207014531184e-02       2.198182593109e+03 
       6.467763939370e-02       2.083249910145e+03 
       6.729102624403e-02       1.962761212823e+03 
       6.992396580523e-02       1.839301142230e+03 
       7.258760892106e-02       1.716261868884e+03 
       7.529138348738e-02       1.597307663109e+03 
       7.804350659706e-02       1.485936875072e+03 
       8.085132981727e-02       1.385120934749e+03 
       8.372157866002e-02       1.296980908704e+03 
       8.666052258529e-02       1.222581530316e+03 
       8.967409798438e-02       1.161827872251e+03 
       9.276799846984e-02       1.113459314253e+03 
       9.594774188956e-02       1.075137608404e+03 
       9.921872042828e-02       1.043582712786e+03 
       1.025862382150e-01       1.014915929513e+03 
       1.060555395917e-01       9.850830577849e+02 
       1.096318303676e-01       9.505708245741e+02 
       1.133202938313e-01       9.090899053981e+02 
       1.171261029242e-01       8.601733009189e+02 
       1.210544297368e-01       8.053737909765e+02 
       1.251104533241e-01       7.479481748590e+02 
       1.292993667390e-01       6.920231447563e+02 
       1.336263841081e-01       6.415887499340e+02 
       1.380967485404e-01       5.994594895040e+02 
       1.427157416280e-01       5.666387640956e+02 
       1.474886952842e-01       5.420860764635e+02 
       1.524210066531e-01       5.229193721535e+02 
       1.575181568164e-01       5.053804624229e+02 
       1.627857340207e-01       4.856881484557e+02 
       1.682294621515e-01       4.612656502469e+02 
       1.738552351907e-01       4.322196362735e+02 
       1.796691584240e-01       4.011676354213e+02 
       1.856775972152e-01       3.717322730704e+02 
       1.918872342464e-01       3.466758424062e+02 
       1.983051362537e-01       3.270243658239e+02 
       2.049388314717e-01       3.118790365885e+02 
       2.117963992633e-01       2.986691299254e+02 
       2.188865737717e-01       2.845255027140e+02 
       2.262188639129e-01       2.681289386768e+02 
       2.338036926760e-01       2.502413584013e+02 
       2.416525595506e-01       2.329809113346e+02 
       2.497782310282e-01       2.183299252744e+02 
       2.581949656268e-01       2.064982168912e+02 
       2.669187818728e-01       1.960962473603e+02 
       2.759677803604e-01       1.855137845845e+02 
       2.853625346335e-01       1.740886536320e+02 
       2.951265706257e-01       1.626893331033e+02 
       3.052869613320e-01       1.524582534514e+02 
       3.158750731756e-01       1.436582009562e+02 
       3.269275145844e-01       1.354672436929e+02 
       3.384873577784e-01       1.271715208916e+02 
       3.506057352291e-01       1.189393434381e+02 
       3.633439584466e-01       1.113288496189e+02 
       3.767763783876e-01       1.043813746553e+02 
       3.909943206365e-01       9.772423429423e+01 
       4.061116144516e-01       9.114941317847e+01 
       4.222725477976e-01       8.490980188109e+01 
       4.396636257202e-01       7.905280206637e+01 
       4.585314963459e-01       7.332168545090e+01 
       4.792112747629e-01       6.777635151288e+01 
       5.021732022058e-01       6.241924301001e+01 
       5.281033694743e-01       5.713317905491e+01 
       5.580516802195e-01       5.191638698763e+01 
       5.937220861353e-01       4.666281855374e+01 
       6.380875141004e-01       4.128883782879e+01 
       6.967971643154e-01       3.564600751574e+01 
       7.814975230748e-01       2.956094013730e+01 
       9.158310091626e-01       2.301553716121e+01 
       1.128886811634e+00       1.679674879141e+01 
       1.419120837792e+00       1.211209754032e+01 
       1.786530382374e+00       8.839711113804e+00 
       2.249108369237e+00       6.501607254617e+00 
       2.831459679849e+00       4.784530722958e+00 
       3.564596543433e+00       3.497091557143e+00 
       4.487561171321e+00       2.521490503163e+00 
       5.649504795557e+00       1.783117927173e+00 
       7.112305151180e+00       1.231465256099e+00 
       8.953861691255e+00       8.284977881255e-01 
       1.127224401681e+01       5.425154764530e-01 
