# Matter power spectrum P(k) at redshift z=2.5
# for k=9.71536e-06 to 12.2475 h/Mpc,
# number of wavenumbers equal to 123
#    1:k (h/Mpc)              2:P (Mpc/h)^3        
       9.715359690731e-06       8.805199006527e+00 
       1.223091319938e-05       1.097964753849e+01 
       1.539780743615e-05       1.369106230965e+01 
       1.938469106728e-05       1.707203104901e+01 
       2.440388018438e-05       2.128786322370e+01 
       3.072266491050e-05       2.654465744769e+01 
       3.867754357387e-05       3.309933639988e+01 
       4.869214247092e-05       4.127212916137e+01 
       6.129977551134e-05       5.146206389396e+01 
       7.717184512850e-05       6.416615746921e+01 
       9.715359690731e-05       8.000307586609e+01 
       1.223091319938e-04       9.974211580754e+01 
       1.539780743615e-04       1.243383368307e+02 
       1.938469106728e-04       1.549743971188e+02 
       2.440388018438e-04       1.931089562719e+02 
       3.072266491050e-04       2.405299365745e+02 
       3.867754357387e-04       2.994079586461e+02 
       4.869214247092e-04       3.723403076540e+02 
       6.129977551134e-04       4.623690398656e+02 
       7.717184512850e-04       5.729509307682e+02 
       9.715359690731e-04       7.078577766223e+02 
       1.223091319938e-03       8.709930535254e+02 
       1.539780743615e-03       1.066085847727e+03 
       1.938469106728e-03       1.296112610437e+03 
       2.440388018438e-03       1.562331646494e+03 
       3.072266491050e-03       1.863041268849e+03 
       3.867754357387e-03       2.192210818993e+03 
       4.869214247092e-03       2.537797623226e+03 
       6.129977551134e-03       2.880234455680e+03 
       7.717184512850e-03       3.191136618256e+03 
       9.715359690731e-03       3.432459952843e+03 
       1.223091319938e-02       3.557975776457e+03 
       1.539780743615e-02       3.516835832736e+03 
       1.938469105426e-02       3.266642812616e+03 
       2.440386169153e-02       2.801661404691e+03 
       3.071840923785e-02       2.193718162324e+03 
       3.845725296551e-02       1.616936935673e+03 
       4.591774535047e-02       1.284043392696e+03 
       5.126302448823e-02       1.149628638604e+03 
       5.550579607389e-02       1.081081779744e+03 
       5.921816886020e-02       1.035561367609e+03 
       6.264087691865e-02       9.975023652593e+02 
       6.589511810889e-02       9.597717797311e+02 
       6.905101733032e-02       9.188565767945e+02 
       7.215342890852e-02       8.732826790735e+02 
       7.523331072136e-02       8.229485747063e+02 
       7.831336674238e-02       7.687344042528e+02 
       8.141110770548e-02       7.122121158231e+02 
       8.454063043472e-02       6.553538416812e+02 
       8.771371089233e-02       6.002627451077e+02 
       9.094050633871e-02       5.489222895926e+02 
       9.423002326320e-02       5.029663785453e+02 
       9.759043883086e-02       4.635370733639e+02 
       1.010293272994e-01       4.312077636854e+02 
       1.045538227868e-01       4.059503935596e+02 
       1.081707381909e-01       3.871345055040e+02 
       1.118866531466e-01       3.736270019835e+02 
       1.157079796381e-01       3.638109332822e+02 
       1.196410111965e-01       3.557297844834e+02 
       1.236919598692e-01       3.472950249346e+02 
       1.278669840146e-01       3.366021567379e+02 
       1.321722092155e-01       3.223078307473e+02 
       1.366137441066e-01       3.039688270235e+02 
       1.411976925750e-01       2.822101641507e+02 
       1.459301635714e-01       2.585824457709e+02 
       1.508172796272e-01       2.351599817766e+02 
       1.558651850796e-01       2.140001087897e+02 
       1.610800549478e-01       1.966154258096e+02 
       1.664681053693e-01       1.836580670537e+02 
       1.720356064801e-01       1.747984817021e+02 
       1.777888986109e-01       1.688216866778e+02 
       1.837344126562e-01       1.639321209445e+02 
       1.898786954742e-01       1.583058185977e+02 
       1.962284411686e-01       1.504783331298e+02 
       2.027905291183e-01       1.401996691435e+02 
       2.095720696439e-01       1.284866303209e+02 
       2.165804582484e-01       1.170406542605e+02 
       2.238234394563e-01       1.073045647745e+02 
       2.313091814004e-01       9.994167611838e+01 
       2.390463625039e-01       9.474779525129e+01 
       2.470442718763e-01       9.071325236671e+01 
       2.553129254219e-01       8.646956239842e+01 
       2.638632001762e-01       8.118893718228e+01 
       2.727069900695e-01       7.500440561199e+01 
       2.818573872321e-01       6.877026865155e+01 
       2.913288941597e-01       6.345744030818e+01 
       3.011376736521e-01       5.939205162496e+01 
       3.113018455611e-01       5.608625056453e+01 
       3.218418422208e-01       5.282116884273e+01 
       3.327808382702e-01       4.916143730680e+01 
       3.441452758239e-01       4.532889052513e+01 
       3.559655132053e-01       4.185384086121e+01 
       3.682766356513e-01       3.896159487282e+01 
       3.811194809327e-01       3.641177582846e+01 
       3.945419539064e-01       3.383186640554e+01 
       4.086007351198e-01       3.121492836638e+01 
       4.233635354156e-01       2.877020115657e+01 
       4.389121205044e-01       2.659337228718e+01 
       4.553464429038e-01       2.456895236549e+01 
       4.727904020176e-01       2.256257817239e+01 
       4.914000583690e-01       2.064540818133e+01 
       5.113756529495e-01       1.888987142074e+01 
       5.329797192948e-01       1.719948985015e+01 
       5.565653181731e-01       1.556533775796e+01 
       5.826218225509e-01       1.401764422959e+01 
       6.118526730278e-01       1.251562066201e+01 
       6.453148169173e-01       1.105697034384e+01 
       6.846853207138e-01       9.625360125496e+00 
       7.328103594254e-01       8.200722458956e+00 
       7.949290364288e-01       6.758160837647e+00 
       8.815651319942e-01       5.271905997151e+00 
       1.014743598918e+00       3.744794776006e+00 
       1.230540416150e+00       2.325768641953e+00 
       1.542045820487e+00       1.318143181366e+00 
       1.941099940515e+00       7.309283793612e-01 
       2.443698616020e+00       4.013798023345e-01 
       3.076434285013e+00       2.186453408690e-01 
       3.873001299118e+00       1.183168689241e-01 
       4.875819755371e+00       6.368902122594e-02 
       6.138293393364e+00       3.414471215231e-02 
       7.727653537955e+00       1.824992262169e-02 
       9.728539412472e+00       9.731546766771e-03 
       1.224750548600e+01       5.179416134422e-03 
