# Matter power spectrum P(k) at redshift z=1
# for k=9.97417e-06 to 12.5699 h/Mpc,
# number of wavenumbers equal to 123
#    1:k (h/Mpc)              2:P (Mpc/h)^3        
       9.974169304674e-06       2.734659976046e+01 
       1.255673519919e-05       3.387915541734e+01 
       1.580799303143e-05       4.197215732155e+01 
       1.990108413674e-05       5.199834087129e+01 
       2.505398054199e-05       6.441938028194e+01 
       3.154109277091e-05       7.980714152956e+01 
       3.970788320505e-05       9.886992551512e+01 
       4.998926321540e-05       1.224848143209e+02 
       6.293275377873e-05       1.517376393846e+02 
       7.922764296623e-05       1.879720823044e+02 
       9.974169304674e-05       2.328498242146e+02 
       1.255673519919e-04       2.884236641815e+02 
       1.580799303143e-04       3.572254315615e+02 
       1.990108413674e-04       4.423698209143e+02 
       2.505398054199e-04       5.476734554407e+02 
       3.154109277091e-04       6.777849080481e+02 
       3.970788320505e-04       8.383150865284e+02 
       4.998926321540e-04       1.035948282124e+03 
       6.293275377873e-04       1.278504445774e+03 
       7.922764296623e-04       1.574917747383e+03 
       9.974169304674e-04       1.935091087714e+03 
       1.255673519919e-03       2.369536087140e+03 
       1.580799303143e-03       2.888566798994e+03 
       1.990108413674e-03       3.500790656954e+03 
       2.505398054199e-03       4.210953263715e+03 
       3.154109277091e-03       5.017011504169e+03 
       3.970788320505e-03       5.906434907863e+03 
       4.998926321540e-03       6.851879037553e+03 
       6.293275377873e-03       7.806857614970e+03 
       7.922764296623e-03       8.702107759687e+03 
       9.974169304674e-03       9.443528878820e+03 
       1.255673519919e-02       9.914609686306e+03 
       1.580799303141e-02       9.986973216483e+03 
       1.990108401467e-02       9.551702538777e+03 
       2.505388120140e-02       8.584730340587e+03 
       3.152657429794e-02       7.236656327668e+03 
       3.920059304230e-02       5.914359809239e+03 
       4.576860727821e-02       5.125318037890e+03 
       5.051541192429e-02       4.712384689494e+03 
       5.441402967776e-02       4.435797885960e+03 
       5.788750464376e-02       4.215245159752e+03 
       6.112309332842e-02       4.019015052908e+03 
       6.421935441421e-02       3.831654483632e+03 
       6.723514813428e-02       3.645996145720e+03 
       7.020902142362e-02       3.459211163422e+03 
       7.316807610262e-02       3.271041257107e+03 
       7.613249239280e-02       3.083125357800e+03 
       7.911803566592e-02       2.898398404488e+03 
       8.213753857927e-02       2.720054045236e+03 
       8.520182404191e-02       2.551547517473e+03 
       8.832030476428e-02       2.395891709987e+03 
       9.150138650346e-02       2.255264556720e+03 
       9.475274718999e-02       2.130927806535e+03 
       9.808153476630e-02       2.022861130381e+03 
       1.014945101233e-01       1.929791745371e+03 
       1.049981519368e-01       1.849245247111e+03 
       1.085987344238e-01       1.777834382489e+03 
       1.123023854504e-01       1.711463362123e+03 
       1.161151301402e-01       1.646098414425e+03 
       1.200429236520e-01       1.578040457429e+03 
       1.240916758247e-01       1.504942447861e+03 
       1.282672697363e-01       1.425897905153e+03 
       1.325755757992e-01       1.342166722082e+03 
       1.370224627240e-01       1.256529862752e+03 
       1.416138064965e-01       1.172870136307e+03 
       1.463554983912e-01       1.095062973372e+03 
       1.512534529661e-01       1.026068791421e+03 
       1.563136169344e-01       9.672049565108e+02 
       1.615419797785e-01       9.177428464392e+02 
       1.669445869540e-01       8.751820096119e+02 
       1.725275565140e-01       8.358493412469e+02 
       1.782970999825e-01       7.961766325454e+02 
       1.842595482937e-01       7.537226415450e+02 
       1.904213836225e-01       7.081583366755e+02 
       1.967892779408e-01       6.611964394255e+02 
       2.033701391659e-01       6.158259666080e+02 
       2.101711658213e-01       5.749683859747e+02 
       2.171999112239e-01       5.398151941109e+02 
       2.244643583502e-01       5.094654920492e+02 
       2.319730067408e-01       4.818573472037e+02 
       2.397349730932e-01       4.549900007358e+02 
       2.477601075895e-01       4.275309641052e+02 
       2.560591285461e-01       3.995150604757e+02 
       2.646437786852e-01       3.724318246107e+02 
       2.735270072821e-01       3.477683275038e+02 
       2.827231836905e-01       3.258752926422e+02 
       2.922483494164e-01       3.061017649657e+02 
       3.021205181196e-01       2.871182509184e+02 
       3.123600358925e-01       2.682722728750e+02 
       3.229900181938e-01       2.500026213271e+02 
       3.340368853340e-01       2.328927292829e+02 
       3.455310260849e-01       2.173240524595e+02 
       3.575076298063e-01       2.028199652588e+02 
       3.700077429836e-01       1.888894421778e+02 
       3.830796286514e-01       1.754320502976e+02 
       3.967805406946e-01       1.628025949200e+02 
       4.111790757728e-01       1.509986656530e+02 
       4.263583441820e-01       1.398215899084e+02 
       4.424203255986e-01       1.291355679096e+02 
       4.594919787436e-01       1.189844553314e+02 
       4.777340150834e-01       1.093713323197e+02 
       4.973538391612e-01       1.002012286050e+02 
       5.186252272867e-01       9.139821769054e+01 
       5.419193306689e-01       8.297141129111e+01 
       5.677555751370e-01       7.483550476273e+01 
       5.968893695621e-01       6.693618552284e+01 
       6.304721161862e-01       5.920268774786e+01 
       6.703633574894e-01       5.154044647811e+01 
       7.197881355068e-01       4.383969204657e+01 
       7.848335206136e-01       3.595061965444e+01 
       8.779877800671e-01       2.772332175847e+01 
       1.024859038285e+00       1.928630624379e+01 
       1.259396819754e+00       1.180295720298e+01 
       1.582501760755e+00       6.786637184734e+00 
       1.992191729475e+00       3.850609161171e+00 
       2.508020555382e+00       2.167088002382e+00 
       3.157410810337e+00       1.210745679122e+00 
       3.974944704607e+00       6.719871447653e-01 
       5.004158899107e+00       3.707219388807e-01 
       6.299862802742e+00       2.033968934466e-01 
       7.931057373188e+00       1.110300913529e-01 
       9.984609669504e+00       6.032785131581e-02 
       1.256987883978e+01       3.263847879656e-02 
