# Matter power spectrum P(k) at redshift z=1.5
# for k=1.00995e-05 to 10.1109 h/Mpc,
# number of wavenumbers equal to 122
#    1:k (h/Mpc)              2:P (Mpc/h)^3        
       1.009947568610e-05       1.059765653066e+01 
       1.271448658703e-05       1.328981948599e+01 
       1.600659026233e-05       1.666586862869e+01 
       2.015110323742e-05       2.089951202208e+01 
       2.536873594127e-05       2.620856514570e+01 
       3.193734634157e-05       3.286613616698e+01 
       4.020673689467e-05       4.121462992834e+01 
       5.061728280202e-05       5.168326064165e+01 
       6.372338359544e-05       6.480994937474e+01 
       8.022298693380e-05       8.126860725912e+01 
       1.009947568610e-04       1.019030369818e+02 
       1.271448658703e-04       1.277688054341e+02 
       1.600659026233e-04       1.601845304306e+02 
       2.015110323742e-04       2.007937836597e+02 
       2.536873594127e-04       2.516381228490e+02 
       3.193734634157e-04       3.152400507499e+02 
       4.020673689467e-04       3.946914192710e+02 
       5.061728280202e-04       4.937374638501e+02 
       6.372338359544e-04       6.168398514734e+02 
       8.022298693380e-04       7.691966800090e+02 
       1.009947568610e-03       9.566958533452e+02 
       1.271448658703e-03       1.185765689729e+03 
       1.600659026233e-03       1.463016475688e+03 
       2.015110323742e-03       1.794454180813e+03 
       2.536873594127e-03       2.184309478693e+03 
       3.193734634157e-03       2.633327516471e+03 
       4.020673689467e-03       3.136602249294e+03 
       5.061728280202e-03       3.680846137969e+03 
       6.372338359544e-03       4.238203091381e+03 
       8.022298693380e-03       4.775061008602e+03 
       1.009947568610e-02       5.233696692770e+03 
       1.271448658703e-02       5.542459079248e+03 
       1.600659026232e-02       5.618073253878e+03 
       2.015110317605e-02       5.384489843403e+03 
       2.536867628512e-02       4.815405460455e+03 
       3.192727022331e-02       3.998609922781e+03 
       3.980669818599e-02       3.189823906965e+03 
       4.681575703143e-02       2.715935007190e+03 
       5.184750997737e-02       2.492594706666e+03 
       5.593700720785e-02       2.356882520072e+03 
       5.956041928589e-02       2.254820647103e+03 
       6.292493399484e-02       2.165200463199e+03 
       6.613808494132e-02       2.077967610142e+03 
       6.926345421934e-02       1.988106126576e+03 
       7.234237100758e-02       1.893543276602e+03 
       7.540372234215e-02       1.794121262993e+03 
       7.846891351013e-02       1.690994002933e+03 
       8.155459827582e-02       1.586416340903e+03 
       8.467428448972e-02       1.482976610475e+03 
       8.783932961102e-02       1.383571478306e+03 
       9.105958509059e-02       1.290891188038e+03 
       9.434382849734e-02       1.207146834666e+03 
       9.770006191049e-02       1.133879745458e+03 
       1.011357229926e-01       1.071735397450e+03 
       1.046578372451e-01       1.020483769506e+03 
       1.082731295438e-01       9.789281241397e+02 
       1.119881067904e-01       9.450361421067e+02 
       1.158091196451e-01       9.161107244116e+02 
       1.197424088433e-01       8.890259331935e+02 
       1.237941400062e-01       8.607478175590e+02 
       1.279704298135e-01       8.286493028355e+02 
       1.322773657072e-01       7.912209178382e+02 
       1.367210208365e-01       7.483808853129e+02 
       1.413074656459e-01       7.015719004641e+02 
       1.460427773055e-01       6.534381031334e+02 
       1.509330480501e-01       6.071542636594e+02 
       1.559843934115e-01       5.656561463663e+02 
       1.612029612741e-01       5.308614332733e+02 
       1.665949426507e-01       5.032734186834e+02 
       1.721665850571e-01       4.818429895309e+02 
       1.779242093465e-01       4.641887247988e+02 
       1.838742308593e-01       4.473448729982e+02 
       1.900231857361e-01       4.287267970176e+02 
       1.963777632450e-01       4.067552309757e+02 
       2.029448449854e-01       3.817458349737e+02 
       2.097315518611e-01       3.557508013317e+02 
       2.167452997667e-01       3.314950874197e+02 
       2.239938650272e-01       3.108377449693e+02 
       2.314854607653e-01       2.941490479318e+02 
       2.392288255812e-01       2.805193107521e+02 
       2.472333262184e-01       2.681473106086e+02 
       2.555090762896e-01       2.551089818723e+02 
       2.640670736808e-01       2.406481235842e+02 
       2.729193599685e-01       2.255327488218e+02 
       2.820792061480e-01       2.112102695755e+02 
       2.915613302302e-01       1.988428832601e+02 
       3.013821539423e-01       1.884647254763e+02 
       3.115601079947e-01       1.789945528551e+02 
       3.221159983659e-01       1.694313117548e+02 
       3.330734501041e-01       1.595268322783e+02 
       3.444594506880e-01       1.498531375388e+02 
       3.563050226880e-01       1.411334373893e+02 
       3.686460663020e-01       1.333630103608e+02 
       3.815244278429e-01       1.260325801190e+02 
       3.949892727996e-01       1.187127249092e+02 
       4.090988754907e-01       1.116186076351e+02 
       4.239229878171e-01       1.050123835293e+02 
       4.395460275983e-01       9.886476501035e+01 
       4.560714503864e-01       9.295696020590e+01 
       4.736278692331e-01       8.720355273500e+01 
       4.923778227500e-01       8.172930553190e+01 
       5.125306733211e-01       7.653112926549e+01 
       5.343621627857e-01       7.146372136158e+01 
       5.582451143648e-01       6.655700706532e+01 
       5.846996324049e-01       6.178807641836e+01 
       6.144791896976e-01       5.708621574983e+01 
       6.487267921909e-01       5.242198665783e+01 
       6.892776140464e-01       4.772014900269e+01 
       7.392916545385e-01       4.288915354599e+01 
       8.046845041879e-01       3.779186940368e+01 
       8.975147592699e-01       3.224349192824e+01 
       1.042742902000e+00       2.611457051769e+01 
       1.276206925440e+00       1.988909289606e+01 
       1.602548085346e+00       1.480442294232e+01 
       2.017393635814e+00       1.104962713737e+01 
       2.539747671114e+00       8.234516751964e+00 
       3.197352882405e+00       6.083008991205e+00 
       4.025228794133e+00       4.425354661168e+00 
       5.067462817219e+00       3.153483812351e+00 
       6.379557713920e+00       2.192351700380e+00 
       8.031387322061e+00       1.483163548261e+00 
       1.011091759170e+01       9.752950870181e-01 
