# Matter power spectrum P(k) at redshift z=2
# for k=8.74765e-06 to 11.0261 h/Mpc,
# number of wavenumbers equal to 123
#    1:k (h/Mpc)              2:P (Mpc/h)^3        
       8.747653052087e-06       1.597977125934e+01 
       1.101264272083e-05       1.998387756960e+01 
       1.386409577227e-05       2.499127809880e+01 
       1.745386247925e-05       3.125334503317e+01 
       2.197311100909e-05       3.908439255355e+01 
       2.766250782552e-05       4.887743003998e+01 
       3.482503405550e-05       6.112381070071e+01 
       4.384212033907e-05       7.643773988224e+01 
       5.519395940179e-05       9.558679640640e+01 
       6.948507806845e-05       1.195298400183e+02 
       8.747653052087e-05       1.494639170649e+02 
       1.101264272083e-04       1.868819120510e+02 
       1.386409577227e-04       2.336427127868e+02 
       1.745386247925e-04       2.920551605153e+02 
       2.197311100909e-04       3.649758143294e+02 
       2.766250782552e-04       4.559176593949e+02 
       3.482503405550e-04       5.691614707254e+02 
       4.384212033907e-04       7.098528066821e+02 
       5.519395940179e-04       8.840564556652e+02 
       6.948507806845e-04       1.098731858417e+03 
       8.747653052087e-04       1.361594929852e+03 
       1.101264272083e-03       1.680813998181e+03 
       1.386409577227e-03       2.064436629024e+03 
       1.745386247925e-03       2.519271172437e+03 
       2.197311100909e-03       3.048922277214e+03 
       2.766250782552e-03       3.651460001523e+03 
       3.482503405550e-03       4.316462912310e+03 
       4.384212033907e-03       5.021241551579e+03 
       5.519395940179e-03       5.725924760866e+03 
       6.948507806845e-03       6.374246269289e+03 
       8.747653052087e-03       6.884023834972e+03 
       1.101264272083e-02       7.152194920093e+03 
       1.386409577226e-02       7.061302424921e+03 
       1.745386244959e-02       6.510576197732e+03 
       2.197307760990e-02       5.486266247618e+03 
       2.765614828646e-02       4.164141410845e+03 
       3.454490603972e-02       2.965716489501e+03 
       4.087084851290e-02       2.341397060024e+03 
       4.539893508602e-02       2.108903171359e+03 
       4.904620395435e-02       2.003672445760e+03 
       5.226250686246e-02       1.943850787461e+03 
       5.524093710650e-02       1.897938115397e+03 
       5.808054654635e-02       1.850356211420e+03 
       6.083941585528e-02       1.792616169229e+03 
       6.355506439748e-02       1.720489760561e+03 
       6.625358856122e-02       1.632909477113e+03 
       6.895424839820e-02       1.531354638241e+03 
       7.167197792828e-02       1.419333759673e+03 
       7.441885485227e-02       1.301767314551e+03 
       7.720500854615e-02       1.184240384221e+03 
       8.003920606190e-02       1.072322609764e+03 
       8.292924414866e-02       9.708658530830e+02 
       8.588221940857e-02       8.835339000973e+02 
       8.890471908182e-02       8.125706348943e+02 
       9.200295848631e-02       7.587134348946e+02 
       9.518288159636e-02       7.212738922787e+02 
       9.845023552106e-02       6.982807742868e+02 
       1.018106261057e-01       6.864753558494e+02 
       1.052695596383e-01       6.814561137036e+02 
       1.088324741944e-01       6.779207825194e+02 
       1.125047632025e-01       6.702403741034e+02 
       1.162917931815e-01       6.535246415164e+02 
       1.201989171817e-01       6.247956628850e+02 
       1.242314851810e-01       5.840642496799e+02 
       1.283948525056e-01       5.344960952309e+02 
       1.326943872205e-01       4.816102911854e+02 
       1.371354773636e-01       4.316952926241e+02 
       1.417235388436e-01       3.900664089373e+02 
       1.464640247977e-01       3.598294517556e+02 
       1.513624371789e-01       3.414561095779e+02 
       1.564243413393e-01       3.328507091886e+02 
       1.616553843574e-01       3.300784922808e+02 
       1.670613178617e-01       3.270247717853e+02 
       1.726480260976e-01       3.181298012166e+02 
       1.784215599976e-01       3.006880475144e+02 
       1.843881780376e-01       2.761157872287e+02 
       1.905543947087e-01       2.489537334620e+02 
       1.969270375120e-01       2.245628881108e+02 
       2.035133135008e-01       2.068577099832e+02 
       2.103208865756e-01       1.967167531054e+02 
       2.173579669831e-01       1.916982181415e+02 
       2.246334148179e-01       1.874797608211e+02 
       2.321568597925e-01       1.799233163258e+02 
       2.399388401617e-01       1.675594992494e+02 
       2.479909645163e-01       1.527865374408e+02 
       2.563261012503e-01       1.396251802475e+02 
       2.649586019508e-01       1.304716922295e+02 
       2.739045668848e-01       1.249630181579e+02 
       2.831821633277e-01       1.203504532526e+02 
       2.928120109689e-01       1.139631602395e+02 
       3.028176533963e-01       1.055497245099e+02 
       3.132261412790e-01       9.716595822022e+01 
       3.240687621698e-01       9.079599907727e+01 
       3.353819651398e-01       8.616949290977e+01 
       3.472085477655e-01       8.160402846845e+01 
       3.595992015482e-01       7.608053402384e+01 
       3.726145549502e-01       7.039756625701e+01 
       3.863279196968e-01       6.571320315477e+01 
       4.008290509818e-01       6.179150470548e+01 
       4.162294024900e-01       5.760171381869e+01 
       4.326696416117e-01       5.324768084954e+01 
       4.503306814274e-01       4.945914496217e+01 
       4.694503665002e-01       4.588557433783e+01 
       4.903495958067e-01       4.219696025869e+01 
       5.134748957689e-01       3.875493631835e+01 
       5.394711475931e-01       3.538360742022e+01 
       5.693129178879e-01       3.202578520219e+01 
       6.045576172589e-01       2.869937747615e+01 
       6.478715859650e-01       2.531583476530e+01 
       7.042132586266e-01       2.179727770880e+01 
       7.836339465999e-01       1.804973309883e+01 
       9.070553148110e-01       1.402724171658e+01 
       1.106268117469e+00       1.008434032529e+01 
       1.388201317967e+00       7.037395951197e+00 
       1.747524938779e+00       4.971615816466e+00 
       2.200002932269e+00       3.557553794280e+00 
       2.769639596954e+00       2.561916885786e+00 
       3.486769670117e+00       1.842661461029e+00 
       4.389582942783e+00       1.313669922061e+00 
       5.526157513848e+00       9.220836737576e-01 
       6.957020123760e+00       6.339941284648e-01 
       8.758369424165e+00       4.257356863508e-01 
       1.102613383396e+01       2.790388209598e-01 
