# Matter power spectrum P(k) at redshift z=1
# for k=1.10313e-05 to 11.0465 h/Mpc,
# number of wavenumbers equal to 122
#    1:k (h/Mpc)              2:P (Mpc/h)^3        
       1.103130177793e-05       1.299413247337e+01 
       1.388758613341e-05       1.630859130173e+01 
       1.748343509183e-05       2.046845537836e+01 
       2.201034072256e-05       2.568933608868e+01 
       2.770937725788e-05       3.224181086893e+01 
       3.488403917493e-05       4.046540909871e+01 
       4.391640338335e-05       5.078614839385e+01 
       5.528747621390e-05       6.373844686443e+01 
       6.960280875964e-05       7.999257110833e+01 
       8.762474467976e-05       1.003887617708e+02 
       1.103130177793e-04       1.259796508802e+02 
       1.388758613341e-04       1.580825336172e+02 
       1.748343509183e-04       1.983431557041e+02 
       2.201034072256e-04       2.488122273748e+02 
       2.770937725788e-04       3.120347137341e+02 
       3.488403917493e-04       3.911493852057e+02 
       4.391640338335e-04       4.899914354961e+02 
       5.528747621390e-04       6.131838964157e+02 
       6.960280875964e-04       7.661955742924e+02 
       8.762474467976e-04       9.553381578821e+02 
       1.103130177793e-03       1.187672202531e+03 
       1.388758613341e-03       1.470759027871e+03 
       1.748343509183e-03       1.812090504295e+03 
       2.201034072256e-03       2.218003058947e+03 
       2.770937725788e-03       2.692106518652e+03 
       3.488403917493e-03       3.233164774441e+03 
       4.391640338335e-03       3.832512994090e+03 
       5.528747621390e-03       4.471239535355e+03 
       6.960280875964e-03       5.110585843839e+03 
       8.762474467976e-03       5.715537329187e+03 
       1.103130177793e-02       6.220620086498e+03 
       1.388758613341e-02       6.553460261094e+03 
       1.748343509183e-02       6.637417681124e+03 
       2.201034071037e-02       6.408315509905e+03 
       2.770935909248e-02       5.847069543459e+03 
       3.487969181549e-02       5.024766831400e+03 
       4.368381077686e-02       4.140310978974e+03 
       5.225359012317e-02       3.512995523472e+03 
       5.840047865148e-02       3.180857471389e+03 
       6.326439732560e-02       2.962588270512e+03 
       6.751319372126e-02       2.790404157717e+03 
       7.142682092049e-02       2.639831251972e+03 
       7.514567124368e-02       2.500489292075e+03 
       7.875074955390e-02       2.367331293226e+03 
       8.229376296977e-02       2.238507905870e+03 
       8.581034192081e-02       2.113726945944e+03 
       8.932658300761e-02       1.993602155072e+03 
       9.286259142316e-02       1.879271261506e+03 
       9.643453734175e-02       1.771827782879e+03 
       1.000559176795e-01       1.672399018926e+03 
       1.037383658540e-01       1.581714126479e+03 
       1.074921909935e-01       1.500047721998e+03 
       1.113267481058e-01       1.427138433625e+03 
       1.152506986724e-01       1.362181970373e+03 
       1.192721979050e-01       1.303829108603e+03 
       1.233990315106e-01       1.250411491502e+03 
       1.276387168221e-01       1.200065793532e+03 
       1.319985782263e-01       1.150958207196e+03 
       1.364858037152e-01       1.101566428592e+03 
       1.411074873824e-01       1.050944725114e+03 
       1.458706613707e-01       9.988832843601e+02 
       1.507823199105e-01       9.459179278684e+02 
       1.558494375077e-01       8.931571714225e+02 
       1.610789829532e-01       8.421555008077e+02 
       1.664779305754e-01       7.943331832705e+02 
       1.720532699847e-01       7.507978231290e+02 
       1.778120154596e-01       7.119374257655e+02 
       1.837612160511e-01       6.773745418090e+02 
       1.899079674431e-01       6.460892510363e+02 
       1.962594265809e-01       6.167114322788e+02 
       2.028228300596e-01       5.879375363846e+02 
       2.096055172563e-01       5.589483551210e+02 
       2.166149591805e-01       5.296517203497e+02 
       2.238587940183e-01       5.004708551843e+02 
       2.313448703558e-01       4.725218773555e+02 
       2.390812990972e-01       4.466977544372e+02 
       2.470765151463e-01       4.232974343868e+02 
       2.553393500158e-01       4.020605140440e+02 
       2.638791166755e-01       3.822665770519e+02 
       2.727057081690e-01       3.631387060168e+02 
       2.818297118387e-01       3.444170420195e+02 
       2.912625414306e-01       3.263287479831e+02 
       3.010165899323e-01       3.090712436382e+02 
       3.111054067778e-01       2.928455742640e+02 
       3.215439040862e-01       2.778508880717e+02 
       3.323485979706e-01       2.638603525726e+02 
       3.435378927598e-01       2.505282666612e+02 
       3.551324183830e-01       2.377659259087e+02 
       3.671554343848e-01       2.255506254312e+02 
       3.796333183859e-01       2.140020754192e+02 
       3.925961627488e-01       2.031686200484e+02 
       4.060785114303e-01       1.929052842108e+02 
       4.201202805466e-01       1.831727368265e+02 
       4.347679226283e-01       1.738473380201e+02 
       4.500759183845e-01       1.649987707784e+02 
       4.661087149737e-01       1.565964304870e+02 
       4.829432827099e-01       1.486038303844e+02 
       5.006725435006e-01       1.409296405113e+02 
       5.194100523904e-01       1.336091735489e+02 
       5.392965204987e-01       1.265875863614e+02 
       5.605091118152e-01       1.198245216544e+02 
       5.832750377384e-01       1.133063079195e+02 
       6.078920275204e-01       1.069847604634e+02 
       6.347602117909e-01       1.008237419368e+02 
       6.644337722432e-01       9.477608136496e+01 
       6.977085529066e-01       8.878938034447e+01 
       7.357789538581e-01       8.279215981716e+01 
       7.805374253423e-01       7.669263051660e+01 
       8.351900186187e-01       7.035535026143e+01 
       9.056260775891e-01       6.357755089334e+01 
       1.003652786797e+00       5.604424921674e+01 
       1.153998195863e+00       4.737563422865e+01 
       1.397719545294e+00       3.773415891628e+01 
       1.750972050179e+00       2.883347308928e+01 
       2.204064667843e+00       2.170908678194e+01 
       2.774751147551e+00       1.608094806379e+01 
       3.493204729044e+00       1.165430567921e+01 
       4.397684201993e+00       8.227415994272e+00 
       5.536356394934e+00       5.640834516272e+00 
       6.969859754332e+00       3.751652773717e+00 
       8.774533561370e+00       2.423475562324e+00 
       1.104648327705e+01       1.525505338958e+00 
