# Matter power spectrum P(k) at redshift z=0
# for k=1.02004e-05 to 10.2126 h/Mpc,
# number of wavenumbers equal to 122
#    1:k (h/Mpc)              2:P (Mpc/h)^3        
       1.020039974860e-05       4.982069593515e+01 
       1.284154245398e-05       6.208109587720e+01 
       1.616654412194e-05       7.735856677814e+01 
       2.035247321601e-05       9.639555467974e+01 
       2.562224572449e-05       1.201170892885e+02 
       3.225649624980e-05       1.496756908881e+02 
       4.060852282431e-05       1.865072471138e+02 
       5.112310131895e-05       2.324004179999e+02 
       6.436017138015e-05       2.895829306725e+02 
       8.102465525790e-05       3.608285418021e+02 
       1.020039974860e-04       4.495893000382e+02 
       1.284154245398e-04       5.601583150140e+02 
       1.616654412194e-04       6.978687200447e+02 
       2.035247321601e-04       8.693341730299e+02 
       2.562224572449e-04       1.082734757366e+03 
       3.225649624980e-04       1.348148423232e+03 
       4.060852282431e-04       1.677921410234e+03 
       5.112310131895e-04       2.087061686653e+03 
       6.436017138015e-04       2.593628019129e+03 
       8.102465525790e-04       3.219068045529e+03 
       1.020039974860e-03       3.988399385633e+03 
       1.284154245398e-03       4.929985801025e+03 
       1.616654412194e-03       6.074407781691e+03 
       2.035247321601e-03       7.453028888850e+03 
       2.562224572449e-03       9.093913412413e+03 
       3.225649624980e-03       1.101629435628e+04 
       4.060852282431e-03       1.322230454169e+04 
       5.112310131895e-03       1.561278338857e+04 
       6.436017138015e-03       1.822706049734e+04 
       8.102465525790e-03       2.088158365627e+04 
       1.020039974860e-02       2.335795013437e+04 
       1.284154245398e-02       2.534299585669e+04 
       1.616654412157e-02       2.644301961582e+04 
       2.035247199521e-02       2.625531143543e+04 
       2.562169416715e-02       2.456937673679e+04 
       3.220659673566e-02       2.168554391560e+04 
       3.949362915993e-02       1.881166697839e+04 
       4.505820810053e-02       1.717439102773e+04 
       4.923960418606e-02       1.623282919549e+04 
       5.278554360996e-02       1.556840591085e+04 
       5.599909666523e-02       1.502668979735e+04 
       5.902269307088e-02       1.453702037532e+04 
       6.193476995540e-02       1.406007817671e+04 
       6.478371960457e-02       1.357615637426e+04 
       6.760202382391e-02       1.307398985783e+04 
       7.041297284842e-02       1.255012217573e+04 
       7.323419324948e-02       1.200827876616e+04 
       7.607964735493e-02       1.145594585253e+04 
       7.896083671288e-02       1.090371284394e+04 
       8.188756244293e-02       1.036429972397e+04 
       8.486842505714e-02       9.850380134907e+03 
       8.791116394846e-02       9.373970658535e+03 
       9.102289429824e-02       8.944086069404e+03 
       9.421027610469e-02       8.566375652163e+03 
       9.747963694874e-02       8.242016210635e+03 
       1.008370623968e-01       7.967205669510e+03 
       1.042884632397e-01       7.733730115087e+03 
       1.078396258265e-01       7.528860849662e+03 
       1.114962498664e-01       7.336932349040e+03 
       1.152639768461e-01       7.141758964650e+03 
       1.191484114002e-01       6.928330665536e+03 
       1.231551374303e-01       6.686924578915e+03 
       1.272897304146e-01       6.414619356257e+03 
       1.315577671061e-01       6.117552269321e+03 
       1.359648336658e-01       5.809336178814e+03 
       1.405165331756e-01       5.507775346118e+03 
       1.452184934088e-01       5.230704404775e+03 
       1.500763757012e-01       4.991472093100e+03 
       1.550958857364e-01       4.795196362637e+03 
       1.602827870465e-01       4.637372711223e+03 
       1.656429180142e-01       4.504531547046e+03 
       1.711822131619e-01       4.379162367122e+03 
       1.769067295037e-01       4.242797570726e+03 
       1.828226787461e-01       4.083509875090e+03 
       1.889364661391e-01       3.902137011816e+03 
       1.952547368121e-01       3.712104506641e+03 
       2.017844304952e-01       3.531561479937e+03 
       2.085328456240e-01       3.374246387480e+03 
       2.155077139792e-01       3.244971108494e+03 
       2.227172872312e-01       3.138429595907e+03 
       2.301704370654e-01       3.040467789040e+03 
       2.378767709812e-01       2.936575305258e+03 
       2.458467664186e-01       2.820779278505e+03 
       2.540919266120e-01       2.697985266202e+03 
       2.626249625558e-01       2.580090862632e+03 
       2.714600067712e-01       2.477309213373e+03 
       2.806128662922e-01       2.389595422243e+03 
       2.901013245985e-01       2.308883928488e+03 
       2.999455053264e-01       2.226354480515e+03 
       3.101683148206e-01       2.139327343763e+03 
       3.207959864046e-01       2.053515184779e+03 
       3.318587573813e-01       1.974915409520e+03 
       3.433917212835e-01       1.904225140936e+03 
       3.554359144810e-01       1.836310399280e+03 
       3.680397205486e-01       1.767675531274e+03 
       3.812607120873e-01       1.699794156555e+03 
       3.951681050248e-01       1.635811585425e+03 
       4.098460867221e-01       1.575344166866e+03 
       4.253984172637e-01       1.516000813226e+03 
       4.419549303588e-01       1.457151153909e+03 
       4.596809455904e-01       1.400156552931e+03 
       4.787912809339e-01       1.344686781564e+03 
       4.995717927573e-01       1.289342355344e+03 
       5.224137389463e-01       1.234403275729e+03 
       5.478710284147e-01       1.179332691580e+03 
       5.767605907074e-01       1.123184664183e+03 
       6.103492519865e-01       1.065174695610e+03 
       6.507270103951e-01       1.003720237519e+03 
       7.016135853497e-01       9.364851126432e+02 
       7.702328880464e-01       8.594435720532e+02 
       8.716632866864e-01       7.658540378974e+02 
       1.035002208616e+00       6.478945517160e+02 
       1.286451946962e+00       5.130230601646e+02 
       1.618591804555e+00       3.862674066249e+02 
       2.037674664976e+00       2.782013176708e+02 
       2.565280390808e+00       1.923074813518e+02 
       3.229496672358e+00       1.284358056451e+02 
       4.065695428137e+00       8.347211725384e+01 
       5.118407291097e+00       5.313056951502e+01 
       6.443693006674e+00       3.329509002596e+01 
       8.112128871903e+00       2.062657514047e+01 
       1.021256518059e+01       1.267136688696e+01 
