# Matter power spectrum P(k) at redshift z=0.5
# for k=1.03004e-05 to 10.3109 h/Mpc,
# number of wavenumbers equal to 122
#    1:k (h/Mpc)              2:P (Mpc/h)^3        
       1.030039289969e-05       4.062067247087e+01 
       1.296742637288e-05       5.046340065459e+01 
       1.632502258639e-05       6.269103959312e+01 
       2.055198578213e-05       7.788136629034e+01 
       2.587341716395e-05       9.675217827860e+01 
       3.257270235765e-05       1.201949733105e+02 
       4.100660272885e-05       1.493169619414e+02 
       5.162425422670e-05       1.854931408507e+02 
       6.499108551091e-05       2.304305320788e+02 
       8.181892908978e-05       2.862475455729e+02 
       1.030039289969e-04       3.555715998318e+02 
       1.296742637288e-04       4.416582914829e+02 
       1.632502258639e-04       5.485355844120e+02 
       2.055198578213e-04       6.811755235997e+02 
       2.587341716395e-04       8.456937180685e+02 
       3.257270235765e-04       1.049572033220e+03 
       4.100660272885e-04       1.301891676443e+03 
       5.162425422670e-04       1.613552562286e+03 
       6.499108551091e-04       1.997442721966e+03 
       8.181892908978e-04       2.468511455220e+03 
       1.030039289969e-03       3.043669706242e+03 
       1.296742637288e-03       3.741327682875e+03 
       1.632502258639e-03       4.580223652574e+03 
       2.055198578213e-03       5.577319754582e+03 
       2.587341716395e-03       6.744524426569e+03 
       3.257270235765e-03       8.084116043859e+03 
       4.100660272885e-03       9.582611820785e+03 
       5.162425422670e-03       1.120331543266e+04 
       6.499108551092e-03       1.283319505594e+04 
       8.181892908978e-03       1.443808190394e+04 
       1.030039289969e-02       1.583470410211e+04 
       1.296742637288e-02       1.683243531643e+04 
       1.632502258633e-02       1.721419730413e+04 
       2.055198547963e-02       1.678667824002e+04 
       2.587322040450e-02       1.548541503582e+04 
       3.254874155726e-02       1.351409040303e+04 
       4.029697356188e-02       1.150495185887e+04 
       4.662312065393e-02       1.026420249020e+04 
       5.125241110189e-02       9.546464748149e+03 
       5.510307338479e-02       9.029391869026e+03 
       5.855694215396e-02       8.601815569832e+03 
       6.178686598949e-02       8.216827942363e+03 
       6.488542026381e-02       7.852471545175e+03 
       6.790858611265e-02       7.497921925964e+03 
       7.089337106219e-02       7.148607747499e+03 
       7.386598928465e-02       6.804078578004e+03 
       7.684608064459e-02       6.466267642377e+03 
       7.984906881807e-02       6.138459295331e+03 
       8.288756504530e-02       5.825030887798e+03 
       8.597224710044e-02       5.529865983887e+03 
       8.911243284075e-02       5.256335135391e+03 
       9.231646740394e-02       5.006887706647e+03 
       9.559199205247e-02       4.782076570732e+03 
       9.894613520339e-02       4.581006281632e+03 
       1.023856507231e-01       4.401123081424e+03 
       1.059170195145e-01       4.237973792399e+03 
       1.095465249457e-01       4.086271390079e+03 
       1.132803092557e-01       3.940602182433e+03 
       1.171244158988e-01       3.795109718812e+03 
       1.210848213742e-01       3.646024046230e+03 
       1.251674591585e-01       3.490940317872e+03 
       1.293782377390e-01       3.330248197956e+03 
       1.337230543331e-01       3.166629216975e+03 
       1.382078056081e-01       3.004702435150e+03 
       1.428383965329e-01       2.849842757921e+03 
       1.476207483779e-01       2.706671643510e+03 
       1.525608068062e-01       2.578140670241e+03 
       1.576645509500e-01       2.464506491124e+03 
       1.629380043411e-01       2.363469249524e+03 
       1.683872485424e-01       2.270703914494e+03 
       1.740184403166e-01       2.181061669361e+03 
       1.798378331609e-01       2.090437062696e+03 
       1.858518040309e-01       1.996952342275e+03 
       1.920668860820e-01       1.901481397547e+03 
       1.984898082697e-01       1.807656454049e+03 
       2.051275426852e-01       1.719177442771e+03 
       2.119873605582e-01       1.638983365631e+03 
       2.190768979613e-01       1.567262793426e+03 
       2.264042323934e-01       1.501626001520e+03 
       2.339779716390e-01       1.438866657484e+03 
       2.418073566012e-01       1.377114580292e+03 
       2.499023802227e-01       1.315929189216e+03 
       2.582739251678e-01       1.256004626626e+03 
       2.669339236831e-01       1.199266829309e+03 
       2.758955440399e-01       1.146973278625e+03 
       2.851734092664e-01       1.098552087810e+03 
       2.947838556026e-01       1.052800134163e+03 
       3.047452404134e-01       1.008461553559e+03 
       3.150783123888e-01       9.652449629977e+02 
       3.258066610547e-01       9.240197237863e+02 
       3.369572683874e-01       8.851384166395e+02 
       3.485611933473e-01       8.485242350307e+02 
       3.606544314892e-01       8.135150549672e+02 
       3.732790080773e-01       7.796646375569e+02 
       3.864843868920e-01       7.471571899121e+02 
       4.003293122608e-01       7.161794822167e+02 
       4.148842554996e-01       6.864823000345e+02 
       4.302347202449e-01       6.577885851297e+02 
       4.464857936896e-01       6.300420460721e+02 
       4.637685474394e-01       6.032180252821e+02 
       4.822492570450e-01       5.771244886504e+02 
       5.021430466124e-01       5.516233639414e+02 
       5.237347206171e-01       5.265564366415e+02 
       5.474117346009e-01       5.017709421106e+02 
       5.737186164991e-01       4.770073272539e+02 
       6.034513380819e-01       4.519941472497e+02 
       6.378307690884e-01       4.263334948235e+02 
       6.788439992042e-01       3.994460305882e+02 
       7.299700324139e-01       3.704517372199e+02 
       7.978454559273e-01       3.379047419937e+02 
       8.961880862764e-01       2.994688402431e+02 
       1.052654243627e+00       2.524873038105e+02 
       1.299705500307e+00       1.995580893176e+02 
       1.634194715998e+00       1.510780358970e+02 
       2.057295176269e+00       1.107105008497e+02 
       2.589981067594e+00       7.828495060231e+01 
       3.260592982012e+00       5.339313140346e+01 
       4.104843362572e+00       3.524235666819e+01 
       5.167691620577e+00       2.262869119882e+01 
       6.505738301460e+00       1.420965199493e+01 
       8.190239270191e+00       8.768601647959e+00 
       1.031090034592e+01       5.339102093528e+00 
