# Matter power spectrum P(k) at redshift z=2
# for k=1.0604e-05 to 10.6167 h/Mpc,
# number of wavenumbers equal to 122
#    1:k (h/Mpc)              2:P (Mpc/h)^3        
       1.060396419339e-05       8.051289814409e+00 
       1.334959998882e-05       1.007987120896e+01 
       1.680615066321e-05       1.261956154236e+01 
       2.115769014435e-05       1.579912805733e+01 
       2.663595377759e-05       1.977977213063e+01 
       3.353267907799e-05       2.476329086476e+01 
       4.221514181682e-05       3.100228973404e+01 
       5.314571479569e-05       3.881293360909e+01 
       6.690649088426e-05       4.859089667210e+01 
       8.423028158816e-05       6.083122980513e+01 
       1.060396419339e-04       7.615310064736e+01 
       1.334959998882e-04       9.533045893863e+01 
       1.680615066321e-04       1.193298473575e+02 
       2.115769014435e-04       1.493566007394e+02 
       2.663595377759e-04       1.869104899980e+02 
       3.353267907799e-04       2.338512258725e+02 
       4.221514181682e-04       2.924727872572e+02 
       5.314571479569e-04       3.655828795483e+02 
       6.690649088426e-04       4.565798532373e+02 
       8.423028158816e-04       5.695149638558e+02 
       1.060396419339e-03       7.091247280662e+02 
       1.334959998882e-03       8.808130630599e+02 
       1.680615066321e-03       1.090519388215e+03 
       2.115769014435e-03       1.344395859122e+03 
       2.663595377759e-03       1.648148363847e+03 
       3.353267907799e-03       2.005971296534e+03 
       4.221514181682e-03       2.419026308846e+03 
       5.314571479569e-03       2.879304351360e+03 
       6.690649088426e-03       3.380688861875e+03 
       8.423028158816e-03       3.896852781743e+03 
       1.060396419339e-02       4.388586366843e+03 
       1.334959998882e-02       4.799319516130e+03 
       1.680615066279e-02       5.056039359095e+03 
       2.115768880185e-02       5.082470676184e+03 
       2.663535609214e-02       4.833458514384e+03 
       3.347925292264e-02       4.352251603849e+03 
       4.103541773255e-02       3.845333795309e+03 
       4.679212987559e-02       3.540373555910e+03 
       5.112295914649e-02       3.354313291459e+03 
       5.479835832422e-02       3.216111180274e+03 
       5.813057370957e-02       3.099187190270e+03 
       6.126657083117e-02       2.991422681169e+03 
       6.428737456129e-02       2.886484409552e+03 
       6.724301385758e-02       2.781008641768e+03 
       7.016708969652e-02       2.673554853817e+03 
       7.308370665708e-02       2.563845490151e+03 
       7.601111511447e-02       2.452576178588e+03 
       7.896377658818e-02       2.341098386181e+03 
       8.195360744380e-02       2.231210898439e+03 
       8.499076495212e-02       2.124869674592e+03 
       8.808416416368e-02       2.023978808572e+03 
       9.124182906716e-02       1.930170175514e+03 
       9.447113769045e-02       1.844587625944e+03 
       9.777899700404e-02       1.767730200822e+03 
       1.011719699706e-01       1.699362247546e+03 
       1.046563691110e-01       1.638526096348e+03 
       1.082383261016e-01       1.583561218075e+03 
       1.119238438745e-01       1.532313331237e+03 
       1.157188357471e-01       1.482361602833e+03 
       1.196291548382e-01       1.431401046992e+03 
       1.236606161883e-01       1.377650137412e+03 
       1.278190134471e-01       1.320216688741e+03 
       1.321101316168e-01       1.259357359986e+03 
       1.365397570984e-01       1.196459922552e+03 
       1.411136861205e-01       1.133739331223e+03 
       1.458377325334e-01       1.073735648947e+03 
       1.507177358774e-01       1.018689528259e+03 
       1.557595706006e-01       9.699606487133e+02 
       1.609691572696e-01       9.276293285357e+02 
       1.663524766039e-01       8.904926598445e+02 
       1.719155871518e-01       8.563154197436e+02 
       1.776646474191e-01       8.226183951202e+02 
       1.836059432587e-01       7.875378895799e+02 
       1.897459213364e-01       7.501316684063e+02 
       1.960912295018e-01       7.111504466897e+02 
       2.026487649355e-01       6.726427119778e+02 
       2.094257310026e-01       6.368761473562e+02 
       2.164297038531e-01       6.050963980223e+02 
       2.236687099636e-01       5.772119419232e+02 
       2.311513160436e-01       5.520353979371e+02 
       2.388867330502e-01       5.278400007334e+02 
       2.468849364847e-01       5.031829725664e+02 
       2.551568057328e-01       4.778648357209e+02 
       2.637142859807e-01       4.528809149704e+02 
       2.725705772680e-01       4.295169427492e+02 
       2.817403565927e-01       4.085172567453e+02 
       2.912400407831e-01       3.895139828343e+02 
       3.010881002516e-01       3.713538124994e+02 
       3.113054369764e-01       3.533100566911e+02 
       3.219158444565e-01       3.354399916762e+02 
       3.329465734387e-01       3.184251382613e+02 
       3.444290356733e-01       3.027316242487e+02 
       3.563996899385e-01       2.881059356376e+02 
       3.689011718319e-01       2.739964715510e+02 
       3.819837541218e-01       2.601779190999e+02 
       3.957072622341e-01       2.469523974181e+02 
       4.101436270680e-01       2.344813347184e+02 
       4.253803472232e-01       2.225827463051e+02 
       4.415252765316e-01       2.110584829511e+02 
       4.587133893846e-01       1.999032098423e+02 
       4.771165779534e-01       1.891956014673e+02 
       4.969582414529e-01       1.788332771100e+02 
       5.185357191388e-01       1.686934542333e+02 
       5.422560899727e-01       1.587888906296e+02 
       5.686958387470e-01       1.490095256401e+02 
       5.987055106946e-01       1.392579884848e+02 
       6.336046713828e-01       1.294158655779e+02 
       6.755715732367e-01       1.192905708654e+02 
       7.284856830161e-01       1.086111931464e+02 
       7.998866886190e-01       9.695545430845e+01 
       9.055169372176e-01       8.374708481951e+01 
       1.075685787951e+00       6.873544384371e+01 
       1.337337065677e+00       5.377681481274e+01 
       1.682646059655e+00       4.137976557660e+01 
       2.118314269814e+00       3.143282969870e+01 
       2.666799639102e+00       2.340102610386e+01 
       3.357301833822e+00       1.696867802466e+01 
       4.226592593662e+00       1.193105852408e+01 
       5.320964821462e+00       8.115673671236e+00 
       6.698697829001e+00       5.343816546507e+00 
       8.433160922860e+00       3.417482987281e+00 
       1.061672058754e+01       2.132520176695e+00 
