# Matter power spectrum P(k) at redshift z=2
# for k=1.14815e-05 to 11.4968 h/Mpc,
# number of wavenumbers equal to 122
#    1:k (h/Mpc)              2:P (Mpc/h)^3        
       1.148148070371e-05       8.208397863120e+00 
       1.445432782293e-05       1.019173279395e+01 
       1.819692060669e-05       1.265427953401e+01 
       2.290856576816e-05       1.571182034959e+01 
       2.884017559330e-05       1.950810191079e+01 
       3.630762993501e-05       2.422159204445e+01 
       4.570859796720e-05       3.007384683934e+01 
       5.754371551839e-05       3.733989652776e+01 
       7.244324575516e-05       4.636110746060e+01 
       9.120064299402e-05       5.756109617741e+01 
       1.148148070371e-04       7.146537941679e+01 
       1.445432782293e-04       8.872555830262e+01 
       1.819692060669e-04       1.101489291587e+02 
       2.290856576816e-04       1.367344426934e+02 
       2.884017559330e-04       1.697158097367e+02 
       3.630762993501e-04       2.106121150953e+02 
       4.570859796720e-04       2.612853224330e+02 
       5.754371551839e-04       3.240022458696e+02 
       7.244324575516e-04       4.014958377249e+02 
       9.120064299402e-04       4.970174980025e+02 
       1.148148070371e-03       6.143696646284e+02 
       1.445432782293e-03       7.579041341239e+02 
       1.819692060669e-03       9.324310842669e+02 
       2.290856576816e-03       1.143025986631e+03 
       2.884017559330e-03       1.394561921052e+03 
       3.630762993501e-03       1.690938393490e+03 
       4.570859796720e-03       2.033960418907e+03 
       5.754371551839e-03       2.417205477132e+03 
       7.244324575516e-03       2.839505710743e+03 
       9.120064299402e-03       3.280953262891e+03 
       1.148148070371e-02       3.712256625494e+03 
       1.445432782293e-02       4.089873260649e+03 
       1.819692060545e-02       4.355905761611e+03 
       2.290856267196e-02       4.447225740647e+03 
       2.883904576598e-02       4.321005429587e+03 
       3.622182709734e-02       3.999512232646e+03 
       4.409775430449e-02       3.638621619618e+03 
       4.993416491243e-02       3.409094711280e+03 
       5.439637224343e-02       3.256855854750e+03 
       5.822053076076e-02       3.137536472531e+03 
       6.170607283333e-02       3.033552973223e+03 
       6.499685720225e-02       2.936519595500e+03 
       6.817338361574e-02       2.841958868768e+03 
       7.128589591748e-02       2.747437805808e+03 
       7.436841967476e-02       2.651821619317e+03 
       7.744552714917e-02       2.554866561920e+03 
       8.053592652820e-02       2.457021419175e+03 
       8.365451267188e-02       2.359216725184e+03 
       8.681360949584e-02       2.262694364829e+03 
       9.002375906049e-02       2.168858408112e+03 
       9.329424253870e-02       2.079086040746e+03 
       9.663343533946e-02       1.994574717600e+03 
       1.000490556600e-01       1.916167535962e+03 
       1.035483422493e-01       1.844256505723e+03 
       1.071381837625e-01       1.778682081955e+03 
       1.108252141511e-01       1.718728777139e+03 
       1.146158836804e-01       1.663178683889e+03 
       1.185165121210e-01       1.610418876840e+03 
       1.225333287060e-01       1.558677450962e+03 
       1.266725021697e-01       1.506263526703e+03 
       1.309401633391e-01       1.451898046485e+03 
       1.353424221903e-01       1.394975132555e+03 
       1.398853809047e-01       1.335752166037e+03 
       1.445751442174e-01       1.275320021467e+03 
       1.494178281822e-01       1.215390519464e+03 
       1.544195683780e-01       1.157889866262e+03 
       1.595865285133e-01       1.104516417498e+03 
       1.649249103435e-01       1.056253300255e+03 
       1.704409657931e-01       1.013091465385e+03 
       1.761410121539e-01       9.740573675512e+02 
       1.820314512226e-01       9.373735430778e+02 
       1.881187932333e-01       9.011370879813e+02 
       1.944096864359e-01       8.639920614308e+02 
       2.009109531838e-01       8.252981728021e+02 
       2.076296334070e-01       7.857346207074e+02 
       2.145730363960e-01       7.469735853954e+02 
       2.217488018888e-01       7.107652822934e+02 
       2.291649715731e-01       6.780328764252e+02 
       2.368300722872e-01       6.485615799674e+02 
       2.447532124560e-01       6.213346845390e+02 
       2.529441936432e-01       5.949739181005e+02 
       2.614136395779e-01       5.684065512084e+02 
       2.701731456474e-01       5.415827088246e+02 
       2.792354526936e-01       5.153764597525e+02 
       2.886146500654e-01       4.907805016642e+02 
       2.983264143583e-01       4.683117258144e+02 
       3.083882922316e-01       4.475748122474e+02 
       3.188200383109e-01       4.276205820010e+02 
       3.296440227144e-01       4.079057882571e+02 
       3.408857275471e-01       3.885628004379e+02 
       3.525743583400e-01       3.701521586814e+02 
       3.647436056834e-01       3.529936849515e+02 
       3.774326054727e-01       3.368104979203e+02 
       3.906871651805e-01       3.211529921216e+02 
       4.045613514742e-01       3.058787236409e+02 
       4.191195762682e-01       2.912507267480e+02 
       4.344393821622e-01       2.773644356660e+02 
       4.506152281196e-01       2.640298150778e+02 
       4.677637365546e-01       2.510906669376e+02 
       4.860311276411e-01       2.385549165847e+02 
       5.056040175787e-01       2.264619781355e+02 
       5.267255536946e-01       2.146967688679e+02 
       5.497203226625e-01       2.031585318717e+02 
       5.750342836549e-01       1.918333971542e+02 
       6.033016840319e-01       1.805957290575e+02 
       6.354631795469e-01       1.693357291796e+02 
       6.729875345321e-01       1.578965758005e+02 
       7.183185750388e-01       1.460403925334e+02 
       7.758504068304e-01       1.334156976579e+02 
       8.542085800993e-01       1.194705438070e+02 
       9.714623301726e-01       1.034436745506e+02 
       1.161181126696e+00       8.505222393145e+01 
       1.447895319302e+00       6.675224081289e+01 
       1.822129117400e+00       5.136012799348e+01 
       2.293917960331e+00       3.873170985918e+01 
       2.887871601079e+00       2.840979154401e+01 
       3.635614944594e+00       2.015337275050e+01 
       4.576968041248e+00       1.379042016726e+01 
       5.762061376097e+00       9.114601093386e+00 
       7.254005490687e+00       5.844635248441e+00 
       9.132251849520e+00       3.656153575026e+00 
       1.149682392026e+01       2.242930385121e+00 
