# Matter power spectrum P(k) at redshift z=1
# for k=1.15145e-05 to 11.5308 h/Mpc,
# number of wavenumbers equal to 122
#    1:k (h/Mpc)              2:P (Mpc/h)^3        
       1.151451021032e-05       1.328869386367e+01 
       1.449590950813e-05       1.654748168501e+01 
       1.824926884686e-05       2.060541418671e+01 
       2.297446829797e-05       2.565845490500e+01 
       2.892314196278e-05       3.195060716946e+01 
       3.641207840587e-05       3.978569218554e+01 
       4.584009080139e-05       4.954198863423e+01 
       5.770925518883e-05       6.169044722266e+01 
       7.265164785293e-05       7.681732435330e+01 
       9.146300569077e-05       9.565228025517e+01 
       1.151451021032e-04       1.191031936415e+02 
       1.449590950813e-04       1.482991714442e+02 
       1.824926884686e-04       1.846434513962e+02 
       2.297446829797e-04       2.298780023223e+02 
       2.892314196278e-04       2.861615452408e+02 
       3.641207840587e-04       3.561621931434e+02 
       4.584009080139e-04       4.431646615998e+02 
       5.770925518883e-04       5.511897604335e+02 
       7.265164785293e-04       6.851207320190e+02 
       9.146300569077e-04       8.508274372194e+02 
       1.151451021032e-03       1.055274128397e+03 
       1.449590950813e-03       1.306578870012e+03 
       1.824926884686e-03       1.613871693829e+03 
       2.297446829797e-03       1.987139883293e+03 
       2.892314196278e-03       2.436456544998e+03 
       3.641207840587e-03       2.970820869102e+03 
       4.584009080139e-03       3.585543901059e+03 
       5.770925518883e-03       4.296815130661e+03 
       7.265164785293e-03       5.087146839281e+03 
       9.146300569077e-03       5.929940541710e+03 
       1.151451021032e-02       6.777452968714e+03 
       1.449590950813e-02       7.552561721073e+03 
       1.824926884363e-02       8.149684695876e+03 
       2.297446192307e-02       8.448200948882e+03 
       2.892122022052e-02       8.357987230435e+03 
       3.628741694580e-02       7.903955929818e+03 
       4.384903023120e-02       7.359578464777e+03 
       4.934480290908e-02       7.001857712256e+03 
       5.361308288944e-02       6.752681188516e+03 
       5.730383598211e-02       6.551377961732e+03 
       6.068428712585e-02       6.372362565079e+03 
       6.388535880393e-02       6.202659992243e+03 
       6.698134709487e-02       6.035108416996e+03 
       7.001910120953e-02       5.865702354613e+03 
       7.303059947687e-02       5.692572957290e+03 
       7.603908376668e-02       5.515133981889e+03 
       7.906234433532e-02       5.334320675607e+03 
       8.211461025078e-02       5.151743564889e+03 
       8.520770128664e-02       4.969891988134e+03 
       8.835176299045e-02       4.791404353426e+03 
       9.155575387230e-02       4.619252228900e+03 
       9.482777856966e-02       4.455948041937e+03 
       9.817532164711e-02       4.303516994407e+03 
       1.016054151669e-01       4.163029167234e+03 
       1.051247608316e-01       4.034566028887e+03 
       1.087398201684e-01       3.917008002193e+03 
       1.124568817273e-01       3.808223076433e+03 
       1.162821114358e-01       3.704918530157e+03 
       1.202215904312e-01       3.603687872120e+03 
       1.242813435027e-01       3.500673380776e+03 
       1.284673604856e-01       3.392974882020e+03 
       1.327856124277e-01       3.278935626435e+03 
       1.372420639976e-01       3.158795811668e+03 
       1.418426833743e-01       3.034675439605e+03 
       1.465934507062e-01       2.910234338557e+03 
       1.515003661309e-01       2.789769934202e+03 
       1.565694582851e-01       2.677467549320e+03 
       1.618067941972e-01       2.575943127212e+03 
       1.672184914300e-01       2.485631869529e+03 
       1.728107333251e-01       2.404507997218e+03 
       1.785897881927e-01       2.328659034223e+03 
       1.845620332793e-01       2.253389889236e+03 
       1.907339843506e-01       2.175118140435e+03 
       1.971123317286e-01       2.091867569685e+03 
       2.037039836491e-01       2.005076808112e+03 
       2.105161178455e-01       1.918868152934e+03 
       2.175562423415e-01       1.837928628244e+03 
       2.248322665554e-01       1.764930715873e+03 
       2.323525839942e-01       1.699734444014e+03 
       2.401261680699e-01       1.639887781079e+03 
       2.481626829257e-01       1.581521576463e+03 
       2.564726116347e-01       1.521510920682e+03 
       2.650674047778e-01       1.459586469984e+03 
       2.739596532597e-01       1.398087833001e+03 
       2.831632903453e-01       1.340034519048e+03 
       2.926938293910e-01       1.287190810597e+03 
       3.025686457223e-01       1.238516203072e+03 
       3.128073137542e-01       1.191281580869e+03 
       3.234320140196e-01       1.143777605862e+03 
       3.344680296385e-01       1.096280219514e+03 
       3.459443584860e-01       1.050677481930e+03 
       3.578944767381e-01       1.008037950171e+03 
       3.703573028675e-01       9.676834317488e+02 
       3.833784305362e-01       9.281330487890e+02 
       3.970117273281e-01       8.889583095054e+02 
       4.113214390395e-01       8.510114391579e+02 
       4.263850047871e-01       8.147742934507e+02 
       4.422968910103e-01       7.796471294523e+02 
       4.591739179347e-01       7.451149117101e+02 
       4.771628261627e-01       7.112698561121e+02 
       4.964512998628e-01       6.783135026971e+02 
       5.172844942657e-01       6.458845838467e+02 
       5.399906504551e-01       6.136930580249e+02 
       5.650223504894e-01       5.817488238910e+02 
       5.930260223700e-01       5.496604077312e+02 
       6.249654142557e-01       5.171048419902e+02 
       6.623550842264e-01       4.835813791233e+02 
       7.077351743624e-01       4.483300511676e+02 
       7.657165391790e-01       4.101769535837e+02 
       8.454375982983e-01       3.672703652919e+02 
       9.660674755749e-01       3.170296569108e+02 
       1.161689345139e+00       2.587176335000e+02 
       1.451971339484e+00       2.005508985602e+02 
       1.827504437027e+00       1.504432177800e+02 
       2.300688242526e+00       1.084823315783e+02 
       2.896394888134e+00       7.480596517951e+01 
       3.646345127262e+00       4.953093447224e+01 
       4.590476540882e+00       3.174856544290e+01 
       5.779067569561e+00       1.985918829029e+01 
       7.275415019796e+00       1.220302645257e+01 
       9.159204849771e+00       7.403734966208e+00 
       1.153075573720e+01       4.451748765696e+00 
