# Matter power spectrum P(k) at redshift z=1
# for k=1.03163e-05 to 10.3308 h/Mpc,
# number of wavenumbers equal to 122
#    1:k (h/Mpc)              2:P (Mpc/h)^3        
       1.031625923138e-05       1.222271965674e+01 
       1.298740090104e-05       1.531924880276e+01 
       1.635016902748e-05       1.920024783897e+01 
       2.058364327582e-05       2.406444266206e+01 
       2.591327158724e-05       3.016089270746e+01 
       3.262287610390e-05       3.780172757465e+01 
       4.106976773301e-05       4.737809581888e+01 
       5.170377425557e-05       5.938013669005e+01 
       6.509119529601e-05       7.442194958217e+01 
       8.194495984220e-05       9.327278879737e+01 
       1.031625923138e-04       1.168959611034e+02 
       1.298740090104e-04       1.464971698648e+02 
       1.635016902748e-04       1.835843250950e+02 
       2.058364327582e-04       2.300409776348e+02 
       2.591327158724e-04       2.882154418195e+02 
       3.262287610390e-04       3.610270348951e+02 
       4.106976773301e-04       4.520893440406e+02 
       5.170377425557e-04       5.658477056877e+02 
       6.509119529601e-04       7.077242768056e+02 
       8.194495984220e-04       8.842598334478e+02 
       1.031625923138e-03       1.103234896604e+03 
       1.298740090104e-03       1.373728399429e+03 
       1.635016902748e-03       1.705938904712e+03 
       2.058364327582e-03       2.110991873271e+03 
       2.591327158724e-03       2.599949782231e+03 
       3.262287610390e-03       3.182455496940e+03 
       4.106976773301e-03       3.855997253881e+03 
       5.170377425557e-03       4.632010343688e+03 
       6.509119529601e-03       5.491264989113e+03 
       8.194495984220e-03       6.401489373750e+03 
       1.031625923138e-02       7.304520256635e+03 
       1.298740090104e-02       8.109674420343e+03 
       1.635016902481e-02       8.693089234505e+03 
       2.058363789658e-02       8.917742588099e+03 
       2.591162385826e-02       8.690252279462e+03 
       3.251456462593e-02       8.064221211082e+03 
       3.931590615055e-02       7.387150993341e+03 
       4.426571738604e-02       6.967874415743e+03 
       4.810494227308e-02       6.687547568738e+03 
       5.142227507852e-02       6.466837058944e+03 
       5.445948068017e-02       6.273173222577e+03 
       5.733481499864e-02       6.090729989111e+03 
       6.011530797048e-02       5.910602515676e+03 
       6.284319095029e-02       5.727933741080e+03 
       6.554727121306e-02       5.540243644594e+03 
       6.824847471748e-02       5.347396497776e+03 
       7.096281185058e-02       5.150204915415e+03 
       7.370308318293e-02       4.950934650071e+03 
       7.647991833594e-02       4.752653668476e+03 
       7.930243866278e-02       4.558523790228e+03 
       8.217869631729e-02       4.372214708004e+03 
       8.511597443180e-02       4.196600680524e+03 
       8.812099772145e-02       4.034185842196e+03 
       9.120008340299e-02       3.886179490293e+03 
       9.435925118473e-02       3.752657372024e+03 
       9.760430446912e-02       3.632311803103e+03 
       1.009408908546e-01       3.522551232726e+03 
       1.043745474702e-01       3.419666781459e+03 
       1.079107350368e-01       3.319397969453e+03 
       1.115548634724e-01       3.217583877286e+03 
       1.153123111542e-01       3.110692765752e+03 
       1.191884394706e-01       2.996693915354e+03 
       1.231886039899e-01       2.875777581048e+03 
       1.273181633556e-01       2.750214893278e+03 
       1.315824868902e-01       2.623981548252e+03 
       1.359869617951e-01       2.501960225691e+03 
       1.405370007840e-01       2.388682180094e+03 
       1.452380509498e-01       2.287345959148e+03 
       1.500956046443e-01       2.198377494521e+03 
       1.551152131368e-01       2.119982032225e+03 
       1.603025038063e-01       2.047783659773e+03 
       1.656632016188e-01       1.977007443743e+03 
       1.712031556368e-01       1.903316827814e+03 
       1.769283713196e-01       1.824338657998e+03 
       1.828450493861e-01       1.741428998733e+03 
       1.889596320577e-01       1.658759615164e+03 
       1.952788575610e-01       1.581182468091e+03 
       2.018098238776e-01       1.511740851608e+03 
       2.085600628899e-01       1.450769982127e+03 
       2.155376262942e-01       1.395903671306e+03 
       2.227511849730e-01       1.343077810950e+03 
       2.302101439431e-01       1.288826993806e+03 
       2.379247755741e-01       1.232512675111e+03 
       2.459063745312e-01       1.176223732509e+03 
       2.541674389084e-01       1.123189005619e+03 
       2.627218833474e-01       1.075514948993e+03 
       2.715852917143e-01       1.032363606519e+03 
       2.807752192696e-01       9.910667178513e+02 
       2.903115574651e-01       9.495888854407e+02 
       3.002169788571e-01       9.079271588131e+02 
       3.105174856465e-01       8.679468938643e+02 
       3.212430937855e-01       8.309408287759e+02 
       3.324286965790e-01       7.964649752779e+02 
       3.441151690384e-01       7.629258059654e+02 
       3.563507997416e-01       7.297076194299e+02 
       3.691931752043e-01       6.975673223573e+02 
       3.827117003783e-01       6.671736156334e+02 
       3.969910308037e-01       6.380174127813e+02 
       4.121358398506e-01       6.094737433647e+02 
       4.282775893903e-01       5.815632874097e+02 
       4.455843909712e-01       5.546023601034e+02 
       4.642757867725e-01       5.282614838482e+02 
       4.846456498662e-01       5.022024338022e+02 
       5.070990528949e-01       4.764954108089e+02 
       5.322143543968e-01       4.508147098791e+02 
       5.608534341732e-01       4.248746999629e+02 
       5.943700156543e-01       3.982808406883e+02 
       6.350329567896e-01       3.704281615109e+02 
       6.869573550223e-01       3.403714144974e+02 
       7.582925281482e-01       3.066268376035e+02 
       8.661323149909e-01       2.670797098607e+02 
       1.040994290416e+00       2.209454761871e+02 
       1.300881081722e+00       1.745988351542e+02 
       1.637321482821e+00       1.345544633670e+02 
       2.061262277309e+00       1.006744275603e+02 
       2.594975456458e+00       7.251786596358e+01 
       3.266880545116e+00       5.013143184259e+01 
       4.112758935542e+00       3.335765452473e+01 
       5.177656736538e+00       2.149905413255e+01 
       6.518283639175e+00       1.351111608924e+01 
       8.206032914639e+00       8.329127464761e+00 
       1.033078336626e+01       5.061353338870e+00 
