# Matter power spectrum P(k) at redshift z=0
# for k=8.67834e-06 to 10.9382 h/Mpc,
# number of wavenumbers equal to 123
#    1:k (h/Mpc)              2:P (Mpc/h)^3        
       8.678343241323e-06       5.188243807964e+01 
       1.092538683877e-05       6.509816545480e+01 
       1.375424712501e-05       8.168012139385e+01 
       1.731557122578e-05       1.024855346451e+02 
       2.179901263586e-05       1.285897510770e+02 
       2.744333095931e-05       1.613417215307e+02 
       3.454910672895e-05       2.024330028431e+02 
       4.349474841586e-05       2.539843550454e+02 
       5.475664406033e-05       3.186532808144e+02 
       6.893453067211e-05       3.997674134594e+02 
       8.678343241323e-05       5.014884116873e+02 
       1.092538683877e-04       6.290113706978e+02 
       1.375424712501e-04       7.888024190305e+02 
       1.731557122578e-04       9.888732355168e+02 
       2.179901263586e-04       1.239081678966e+03 
       2.744333095931e-04       1.551431336615e+03 
       3.454910672895e-04       1.940318411001e+03 
       4.349474841586e-04       2.422647812783e+03 
       5.475664406033e-04       3.017725154090e+03 
       6.893453067211e-04       3.746820650946e+03 
       8.678343241323e-04       4.632190160179e+03 
       1.092538683877e-03       5.695024189808e+03 
       1.375424712501e-03       6.951795989916e+03 
       1.731557122578e-03       8.409025247084e+03 
       2.179901263586e-03       1.005618182000e+04 
       2.744333095931e-03       1.185792917267e+04 
       3.454910672895e-03       1.374704695880e+04 
       4.349474841586e-03       1.561757019145e+04 
       5.475664406033e-03       1.732378447546e+04 
       6.893453067211e-03       1.867517967386e+04 
       8.678343241323e-03       1.947773462070e+04 
       1.092538683877e-02       1.950286422374e+04 
       1.375424712501e-02       1.854449344390e+04 
       1.731557122542e-02       1.647469365878e+04 
       2.179901145735e-02       1.337447978958e+04 
       2.744278384417e-02       9.708190961286e+03 
       3.449849801052e-02       6.385030305002e+03 
       4.233927326670e-02       4.408522678299e+03 
       4.835297372968e-02       3.743302403782e+03 
       5.286217439972e-02       3.514691726078e+03 
       5.668081945051e-02       3.405416249923e+03 
       6.013894019512e-02       3.320906991568e+03 
       6.339120174432e-02       3.223243151218e+03 
       6.652260480606e-02       3.095917747909e+03 
       6.958551336480e-02       2.933479001445e+03 
       7.261503530680e-02       2.738350140450e+03 
       7.563632095033e-02       2.518658735636e+03 
       7.866839020750e-02       2.284974241212e+03 
       8.172629936305e-02       2.050019164772e+03 
       8.482244419696e-02       1.825927943559e+03 
       8.796738274866e-02       1.623004558069e+03 
       9.117037586733e-02       1.448684134512e+03 
       9.443975419716e-02       1.307253932782e+03 
       9.778317417683e-02       1.199936300906e+03 
       1.012078006339e-01       1.125044104542e+03 
       1.047204393715e-01       1.078730577799e+03 
       1.083276347854e-01       1.055019848027e+03 
       1.120357424592e-01       1.046046908947e+03 
       1.158509835045e-01       1.042780927239e+03 
       1.197794853693e-01       1.035189938728e+03 
       1.238273125168e-01       1.014248283374e+03 
       1.280004894948e-01       9.740322405694e+02 
       1.323050183357e-01       9.132398423358e+02 
       1.367468918392e-01       8.357618283207e+02 
       1.413321040311e-01       7.501635796341e+02 
       1.460666589229e-01       6.665470169536e+02 
       1.509565785896e-01       5.941833841405e+02 
       1.560079115111e-01       5.388863947289e+02 
       1.612267420822e-01       5.024483747261e+02 
       1.666192021669e-01       4.825623384670e+02 
       1.721914855583e-01       4.736196755967e+02 
       1.779498661895e-01       4.678980353618e+02 
       1.839007209387e-01       4.572944141676e+02 
       1.900505578637e-01       4.364311199156e+02 
       1.964060507098e-01       4.048190270095e+02 
       2.029740805524e-01       3.671692250886e+02 
       2.097617854700e-01       3.308761717169e+02 
       2.167766192153e-01       3.017516164006e+02 
       2.240264199540e-01       2.816959128416e+02 
       2.315194903064e-01       2.691735135347e+02 
       2.392646901606e-01       2.603753729661e+02 
       2.472715440517e-01       2.503358029592e+02 
       2.555503653489e-01       2.358652722886e+02 
       2.641124000934e-01       2.178772513701e+02 
       2.729699941258e-01       1.998680938077e+02 
       2.821367881978e-01       1.850242818858e+02 
       2.916279471585e-01       1.743782781529e+02 
       3.014604311570e-01       1.660731337060e+02 
       3.116533192705e-01       1.574956286540e+02 
       3.222281992935e-01       1.475635168789e+02 
       3.332096419438e-01       1.369477895071e+02 
       3.446257839666e-01       1.275243698374e+02 
       3.565090533065e-01       1.198617502117e+02 
       3.688970818295e-01       1.131056884917e+02 
       3.818338687951e-01       1.061302295985e+02 
       3.953712842427e-01       9.906527712283e+01 
       4.095710402159e-01       9.250612105319e+01 
       4.245073168265e-01       8.665321904131e+01 
       4.402703222794e-01       8.114726263611e+01 
       4.569712132591e-01       7.575029070062e+01 
       4.747490442207e-01       7.055821740216e+01 
       4.937808248213e-01       6.576344460498e+01 
       5.142964861260e-01       6.114700971603e+01 
       5.366018745060e-01       5.667234326072e+01 
       5.611154117256e-01       5.240077086905e+01 
       5.884291273713e-01       4.824499028120e+01 
       6.194155700748e-01       4.417660698691e+01 
       6.554266647947e-01       4.015200280761e+01 
       6.986904630269e-01       3.610363404996e+01 
       7.531673633628e-01       3.194774319815e+01 
       8.265382782446e-01       2.756707752937e+01 
       9.348259972984e-01       2.282421909711e+01 
       1.109077554050e+00       1.777246814585e+01 
       1.377909906087e+00       1.316794016469e+01 
       1.733600424645e+00       9.752885901895e+00 
       2.182460024301e+00       7.299368387855e+00 
       2.747554353797e+00       5.486922591378e+00 
       3.458965996272e+00       4.114880261234e+00 
       4.354580191239e+00       3.059749949397e+00 
       5.482091660447e+00       2.243689191354e+00 
       6.901544501121e+00       1.615256663606e+00 
       8.688529753090e+00       1.137764394918e+00 
       1.093821089729e+01       7.824015667932e-01 
