# Matter power spectrum P(k) at redshift z=2
# for k=1.18246e-05 to 11.8368 h/Mpc,
# number of wavenumbers equal to 122
#    1:k (h/Mpc)              2:P (Mpc/h)^3        
       1.182456065380e-05       6.838295323322e+00 
       1.488623989037e-05       8.475343617953e+00 
       1.874066568405e-05       1.050428464344e+01 
       2.359310026358e-05       1.301892494306e+01 
       2.970195346483e-05       1.613552165864e+01 
       3.739254399681e-05       1.999814095074e+01 
       4.707442384921e-05       2.478530446883e+01 
       5.926318842934e-05       3.071819976100e+01 
       7.460793389765e-05       3.807082590724e+01 
       9.392582390521e-05       4.718250239415e+01 
       1.182456065380e-04       5.847324507893e+01 
       1.488623989037e-04       7.246257137855e+01 
       1.874066568405e-04       8.979232208149e+01 
       2.359310026358e-04       1.112540100739e+02 
       2.970195346483e-04       1.378209302391e+02 
       3.739254399681e-04       1.706846092234e+02 
       4.707442384921e-04       2.112938791405e+02 
       5.926318842934e-04       2.613926593886e+02 
       7.460793389765e-04       3.230494485425e+02 
       9.392582390521e-04       3.986684946670e+02 
       1.182456065380e-03       4.909714735097e+02 
       1.488623989037e-03       6.029375400174e+02 
       1.874066568405e-03       7.376717562284e+02 
       2.359310026358e-03       8.981084355822e+02 
       2.970195346483e-03       1.086525664131e+03 
       3.739254399681e-03       1.303815738666e+03 
       4.707442384921e-03       1.548539288418e+03 
       5.926318842934e-03       1.815691250272e+03 
       7.460793389765e-03       2.093536426186e+03 
       9.392582390521e-03       2.368417354278e+03 
       1.182456065380e-02       2.614677935822e+03 
       1.488623989037e-02       2.799946544938e+03 
       1.874066568402e-02       2.885356529755e+03 
       2.359310009127e-02       2.833245401612e+03 
       2.970181933517e-02       2.624901988712e+03 
       3.737363895737e-02       2.288761818809e+03 
       4.643494848799e-02       1.932134468561e+03 
       5.411648241835e-02       1.708620154931e+03 
       5.968001141260e-02       1.586934366317e+03 
       6.426117577006e-02       1.503748560123e+03 
       6.834831098531e-02       1.436926702679e+03 
       7.215852652734e-02       1.377321477229e+03 
       7.580649222540e-02       1.320492170063e+03 
       7.936086068605e-02       1.264150965388e+03 
       8.286667586572e-02       1.207285607364e+03 
       8.635565443889e-02       1.149687873205e+03 
       8.985144172034e-02       1.091724968768e+03 
       9.337252924348e-02       1.034120401419e+03 
       9.693398212827e-02       9.778341536848e+02 
       1.005485159334e-01       9.239028292927e+02 
       1.042271967942e-01       8.733072015207e+02 
       1.079799126692e-01       8.268511165993e+02 
       1.118156997373e-01       7.850603561741e+02 
       1.157429738546e-01       7.481153600288e+02 
       1.197696978479e-01       7.158180078253e+02 
       1.239035042525e-01       6.875781727805e+02 
       1.281517863653e-01       6.624792387633e+02 
       1.325217662994e-01       6.393542516582e+02 
       1.370205460600e-01       6.169305704993e+02 
       1.416551459361e-01       5.940105736071e+02 
       1.464325333651e-01       5.696926880639e+02 
       1.513596446740e-01       5.435381363845e+02 
       1.564434015949e-01       5.156873177619e+02 
       1.616907241232e-01       4.868664879582e+02 
       1.671085410626e-01       4.582163059777e+02 
       1.727037994613e-01       4.309997630029e+02 
       1.784834740504e-01       4.063094287044e+02 
       1.844545777420e-01       3.847760649734e+02 
       1.906241742044e-01       3.664055780108e+02 
       1.969993935139e-01       3.505771665602e+02 
       2.035874518645e-01       3.361904256815e+02 
       2.103956763075e-01       3.220330081237e+02 
       2.174315354901e-01       3.071577347381e+02 
       2.247026773608e-01       2.912030229281e+02 
       2.322169748307e-01       2.745037340962e+02 
       2.399825804094e-01       2.580021669207e+02 
       2.480079909071e-01       2.427688091658e+02 
       2.563021233966e-01       2.294039207981e+02 
       2.648744038030e-01       2.178255373154e+02 
       2.737348697293e-01       2.074476841880e+02 
       2.828942894719e-01       1.975286488215e+02 
       2.923642996542e-01       1.874413115428e+02 
       3.021575645427e-01       1.770530713098e+02 
       3.122879609640e-01       1.668064196590e+02 
       3.227707938629e-01       1.572706225606e+02 
       3.336230490355e-01       1.487382850014e+02 
       3.448636915395e-01       1.410811102242e+02 
       3.565140209159e-01       1.338102540909e+02 
       3.685980978763e-01       1.265947114713e+02 
       3.811432618987e-01       1.194812795556e+02 
       3.941807657288e-01       1.127128597960e+02 
       4.077465619079e-01       1.065022460916e+02 
       4.218822893131e-01       1.007390094745e+02 
       4.366365261270e-01       9.521219240622e+01 
       4.520664025286e-01       8.981747840370e+01 
       4.682397062876e-01       8.467858843373e+01 
       4.852376748932e-01       7.984779742420e+01 
       5.031587614696e-01       7.526428407455e+01 
       5.221238103282e-01       7.084691451303e+01 
       5.422833203211e-01       6.659716532240e+01 
       5.638278814043e-01       6.253709248731e+01 
       5.870035778350e-01       5.863423058500e+01 
       6.121354302608e-01       5.484099145153e+01 
       6.396643610146e-01       5.116252770163e+01 
       6.702079458213e-01       4.756456318906e+01 
       7.046652278647e-01       4.401350264041e+01 
       7.444082127844e-01       4.047310344920e+01 
       7.916560688876e-01       3.688806096184e+01 
       8.502646434062e-01       3.318304450149e+01 
       9.275268161347e-01       2.924555916412e+01 
       1.038427902044e+00       2.492415415773e+01 
       1.213608085751e+00       2.013160694213e+01 
       1.492797592987e+00       1.531979295293e+01 
       1.876052958387e+00       1.143215912724e+01 
       2.361747422546e+00       8.529354987093e+00 
       2.973263605284e+00       6.326577978816e+00 
       3.743117108525e+00       4.631887118581e+00 
       4.712305247244e+00       3.327013416506e+00 
       5.932440823886e+00       2.333914294883e+00 
       7.468500507155e+00       1.594239082290e+00 
       9.402285076455e+00       1.058761941346e+00 
       1.183677561168e+01       6.836719411143e-01 
