# Matter power spectrum P(k) at redshift z=2.5
# for k=9.78505e-06 to 12.3361 h/Mpc,
# number of wavenumbers equal to 123
#    1:k (h/Mpc)              2:P (Mpc/h)^3        
       9.785048993054e-06       8.903178710869e+00 
       1.231864683301e-05       1.104826679378e+01 
       1.550825753699e-05       1.371016542725e+01 
       1.952373950597e-05       1.701337044535e+01 
       2.457893179731e-05       2.111235379655e+01 
       3.094304183439e-05       2.619876423929e+01 
       3.895498168352e-05       3.251034078167e+01 
       4.904141635736e-05       4.034194364841e+01 
       6.173948528266e-05       5.005915500856e+01 
       7.772540693343e-05       6.211501541420e+01 
       9.785048993054e-05       7.707049434813e+01 
       1.231864683301e-04       9.561931513632e+01 
       1.550825753699e-04       1.186176523243e+02 
       1.952373950597e-04       1.471188277259e+02 
       2.457893179731e-04       1.824122690934e+02 
       3.094304183439e-04       2.260641969334e+02 
       3.895498168352e-04       2.799542231053e+02 
       4.904141635736e-04       3.462967986017e+02 
       6.173948528266e-04       4.276296961316e+02 
       7.772540693343e-04       5.267467883972e+02 
       9.785048993054e-04       6.465563567584e+02 
       1.231864683301e-03       7.898595139765e+02 
       1.550825753699e-03       9.590260409184e+02 
       1.952373950597e-03       1.155437970509e+03 
       2.457893179731e-03       1.378578974397e+03 
       3.094304183439e-03       1.625031390544e+03 
       3.895498168352e-03       1.887485448566e+03 
       4.904141635736e-03       2.153802363238e+03 
       6.173948528266e-03       2.406544150983e+03 
       7.772540693343e-03       2.623313166327e+03 
       9.785048993054e-03       2.777522557306e+03 
       1.231864683301e-02       2.841233728321e+03 
       1.550825753699e-02       2.788530518155e+03 
       1.952373950158e-02       2.602751784307e+03 
       2.457892363051e-02       2.288742085944e+03 
       3.094069563977e-02       1.888347178391e+03 
       3.880874731596e-02       1.488671424779e+03 
       4.680101350367e-02       1.212545855884e+03 
       5.258837441722e-02       1.073899776549e+03 
       5.710084658285e-02       9.873986070375e+02 
       6.101125078742e-02       9.210219788195e+02 
       6.459719300012e-02       8.638388492493e+02 
       6.799534918509e-02       8.113153525869e+02 
       7.128355206427e-02       7.614669501158e+02 
       7.451100685559e-02       7.135455191711e+02 
       7.771136673114e-02       6.674601197822e+02 
       8.090913022679e-02       6.234806403209e+02 
       8.412307483889e-02       5.820286336719e+02 
       8.736823663866e-02       5.435496736881e+02 
       9.065711826547e-02       5.084109594845e+02 
       9.400046070847e-02       4.768350009425e+02 
       9.740775532766e-02       4.488520169374e+02 
       1.008875942835e-01       4.242815665276e+02 
       1.044479166158e-01       4.027356364027e+02 
       1.080961847098e-01       3.836492507306e+02 
       1.118395129767e-01       3.663365990128e+02 
       1.156847628957e-01       3.500558472052e+02 
       1.196386138449e-01       3.341141294528e+02 
       1.237076161859e-01       3.179637498026e+02 
       1.278982311475e-01       3.012871324408e+02 
       1.322168608105e-01       2.840464770044e+02 
       1.366698706640e-01       2.664932637390e+02 
       1.412636066527e-01       2.490908384502e+02 
       1.460044082726e-01       2.324111385750e+02 
       1.508986190223e-01       2.169777567443e+02 
       1.559525953671e-01       2.031496180452e+02 
       1.611727152633e-01       1.910182039478e+02 
       1.665653872325e-01       1.803900206053e+02 
       1.721370609311e-01       1.708579162012e+02 
       1.778942401375e-01       1.619199233199e+02 
       1.838434990623e-01       1.531144697953e+02 
       1.899915028755e-01       1.441801380502e+02 
       1.963450333395e-01       1.351330202166e+02 
       2.029110204332e-01       1.261393854084e+02 
       2.096965808636e-01       1.176038404864e+02 
       2.167090643831e-01       1.098402792910e+02 
       2.239561088791e-01       1.028928173187e+02 
       2.314457052836e-01       9.664461917426e+01 
       2.391862734763e-01       9.084401557146e+01 
       2.471867505492e-01       8.522918202752e+01 
       2.554566930704e-01       7.973086364288e+01 
       2.640063953628e-01       7.445316962692e+01 
       2.728470263297e-01       6.946170921574e+01 
       2.819907880425e-01       6.480607444518e+01 
       2.914511002227e-01       6.054669317844e+01 
       3.012428159533e-01       5.660305395916e+01 
       3.113824755514e-01       5.285389532052e+01 
       3.218886076560e-01       4.928954103193e+01 
       3.327820894159e-01       4.590370680896e+01 
       3.440865814912e-01       4.273022377894e+01 
       3.558290588029e-01       3.978336432217e+01 
       3.680404651770e-01       3.701152246458e+01 
       3.807565301457e-01       3.441035266415e+01 
       3.940188005485e-01       3.193557404880e+01 
       4.078759603877e-01       2.961386792826e+01 
       4.223855430314e-01       2.743434968194e+01 
       4.376161858541e-01       2.538568177163e+01 
       4.536506479484e-01       2.343835605690e+01 
       4.705899222693e-01       2.160947572114e+01 
       4.885589519347e-01       1.987812986099e+01 
       5.077147560914e-01       1.823594108948e+01 
       5.282582769535e-01       1.668153029486e+01 
       5.504521581564e-01       1.520107760799e+01 
       5.746483261998e-01       1.378780402890e+01 
       6.013324657651e-01       1.243249420439e+01 
       6.311990543867e-01       1.112614061707e+01 
       6.652848792788e-01       9.856894256313e+00 
       7.052220054935e-01       8.611427520438e+00 
       7.537532918327e-01       7.374418221887e+00 
       8.158697519055e-01       6.124433679522e+00 
       9.014871569473e-01       4.838134187068e+00 
       1.031404997273e+00       3.508598783830e+00 
       1.242135716477e+00       2.239307480334e+00 
       1.553339012229e+00       1.294760598284e+00 
       1.955140526362e+00       7.309457080030e-01 
       2.461372893943e+00       4.094229244396e-01 
       3.098684879810e+00       2.277943122077e-01 
       3.901013138334e+00       1.259707432397e-01 
       4.911084571592e+00       6.927438846068e-02 
       6.182689166647e+00       3.790211261329e-02 
       7.783544505116e+00       2.064054000933e-02 
       9.798901971322e+00       1.119181490367e-02 
       1.233608669938e+01       6.044259078788e-03 
