# Matter power spectrum P(k) at redshift z=2.5
# for k=1.13589e-05 to 11.3744 h/Mpc,
# number of wavenumbers equal to 122
#    1:k (h/Mpc)              2:P (Mpc/h)^3        
       1.135890234065e-05       3.187833566868e+00 
       1.430001080673e-05       3.981120500063e+00 
       1.800264699353e-05       4.971813502074e+00 
       2.266398977971e-05       6.209033969895e+00 
       2.853227266632e-05       7.754124607189e+00 
       3.592000311588e-05       9.683688154144e+00 
       4.522060471430e-05       1.209337859645e+01 
       5.692936841153e-05       1.510263265555e+01 
       7.166982857067e-05       1.886056739046e+01 
       9.022696844655e-05       2.355332519199e+01 
       1.135890234065e-04       2.941320793088e+01 
       1.430001080673e-04       3.673000519261e+01 
       1.800264699353e-04       4.586499046232e+01 
       2.266398977971e-04       5.726810190464e+01 
       2.853227266632e-04       7.149882423038e+01 
       3.592000311588e-04       8.925117070502e+01 
       4.522060471430e-04       1.113828366691e+02 
       5.692936841153e-04       1.389479175951e+02 
       7.166982857067e-04       1.732314529467e+02 
       9.022696844655e-04       2.157825726423e+02 
       1.135890234065e-03       2.684416483332e+02 
       1.430001080673e-03       3.333447436380e+02 
       1.800264699353e-03       4.129217422925e+02 
       2.266398977971e-03       5.098473957752e+02 
       2.853227266632e-03       6.268315693421e+02 
       3.592000311588e-03       7.663177728058e+02 
       4.522060471430e-03       9.291945314805e+02 
       5.692936841153e-03       1.116766116800e+03 
       7.166982857067e-03       1.325887248766e+03 
       9.022696844655e-03       1.549721755069e+03 
       1.135890234065e-02       1.775132712930e+03 
       1.430001080673e-02       1.981022036379e+03 
       1.800264699195e-02       2.137553497345e+03 
       2.266398607414e-02       2.209900881352e+03 
       2.853098691729e-02       2.171345048021e+03 
       3.582632385094e-02       2.028595262463e+03 
       4.353436817328e-02       1.860701014628e+03 
       4.921310913717e-02       1.754182860185e+03 
       5.357279464438e-02       1.684137551486e+03 
       5.731806707029e-02       1.629793298574e+03 
       6.073618385967e-02       1.582642651473e+03 
       6.396587148575e-02       1.538477702281e+03 
       6.708504751105e-02       1.494939761107e+03 
       7.014247624661e-02       1.450677556627e+03 
       7.317125034479e-02       1.404995886602e+03 
       7.619530868356e-02       1.357687131601e+03 
       7.923290295412e-02       1.308932934108e+03 
       8.229858211522e-02       1.259220554835e+03 
       8.540439645129e-02       1.209267750604e+03 
       8.856066327078e-02       1.159934320834e+03 
       9.177647294851e-02       1.112124016054e+03 
       9.506003416760e-02       1.066687946276e+03 
       9.841891572376e-02       1.024322547352e+03 
       1.018602195604e-01       9.854835551924e+02 
       1.053907067387e-01       9.503182251806e+02 
       1.090168903624e-01       9.186295508581e+02 
       1.127451047759e-01       8.898699672080e+02 
       1.165815573988e-01       8.631907595694e+02 
       1.205323676664e-01       8.375262198952e+02 
       1.246035963037e-01       8.117525605565e+02 
       1.288012673432e-01       7.848698932378e+02 
       1.331313847507e-01       7.562142277268e+02 
       1.375999451621e-01       7.256128990112e+02 
       1.422129479912e-01       6.934541610384e+02 
       1.469764040140e-01       6.606354168984e+02 
       1.518963434312e-01       6.283730746496e+02 
       1.569788243492e-01       5.979310551713e+02 
       1.622299425773e-01       5.702879809913e+02 
       1.676558436158e-01       5.458546710737e+02 
       1.732627376934e-01       5.243791289417e+02 
       1.790569186999e-01       5.049527928268e+02 
       1.850447878547e-01       4.863986485422e+02 
       1.912328829497e-01       4.673788647989e+02 
       1.976279140121e-01       4.470639107712e+02 
       2.042368062524e-01       4.255101265214e+02 
       2.110667512060e-01       4.036065402926e+02 
       2.181252670471e-01       3.825727790618e+02 
       2.254202691720e-01       3.634221639729e+02 
       2.329601523200e-01       3.465768578766e+02 
       2.407538857476e-01       3.316737582536e+02 
       2.488111233197e-01       3.176980677655e+02 
       2.571423308483e-01       3.036131710393e+02 
       2.657589336414e-01       2.889505268420e+02 
       2.746734880605e-01       2.740111181897e+02 
       2.838998819907e-01       2.596565243513e+02 
       2.934535705922e-01       2.466493780253e+02 
       3.033518556432e-01       2.350261154769e+02 
       3.136142193800e-01       2.242018902714e+02 
       3.242627272380e-01       2.134669173943e+02 
       3.353225186673e-01       2.025942697371e+02 
       3.468224117737e-01       1.919854350784e+02 
       3.587956567431e-01       1.821287700258e+02 
       3.712808860834e-01       1.731024194109e+02 
       3.843233285913e-01       1.644885867662e+02 
       3.979763816924e-01       1.559658925522e+02 
       4.123036783515e-01       1.476364499862e+02 
       4.273818483117e-01       1.397807853773e+02 
       4.433042729285e-01       1.323813645533e+02 
       4.601862926658e-01       1.251937337003e+02 
       4.781725903542e-01       1.181530828410e+02 
       4.974479236250e-01       1.114014899238e+02 
       5.182531758990e-01       1.049006433432e+02 
       5.409101601968e-01       9.850375838853e+01 
       5.658614324745e-01       9.225131674908e+01 
       5.937371002270e-01       8.609510976584e+01 
       6.254729490068e-01       7.994457145965e+01 
       6.625325864571e-01       7.374946028346e+01 
       7.073562921492e-01       6.738183101837e+01 
       7.643426537844e-01       6.068266623815e+01 
       8.421479492992e-01       5.340887427270e+01 
       9.589157110633e-01       4.526891199734e+01 
       1.147998377871e+00       3.634571860266e+01 
       1.432416870138e+00       2.806195591712e+01 
       1.802723587393e+00       2.157255378425e+01 
       2.269488927563e+00       1.652006890250e+01 
       2.857117273382e+00       1.249367124022e+01 
       3.596897539935e+00       9.259957264401e+00 
       4.528225716644e+00       6.686105808988e+00 
       5.700698425023e+00       4.683099320921e+00 
       7.176754112236e+00       3.174918328096e+00 
       9.034998126093e+00       2.084568994283e+00 
       1.137438873645e+01       1.329795493983e+00 
