# Matter power spectrum P(k) at redshift z=1.5
# for k=8.63426e-06 to 10.884 h/Mpc,
# number of wavenumbers equal to 123
#    1:k (h/Mpc)              2:P (Mpc/h)^3        
       8.634259274905e-06       2.440357286472e+01 
       1.086988841320e-05       3.032093429731e+01 
       1.368437874674e-05       3.767305253774e+01 
       1.722761214889e-05       4.680782651718e+01 
       2.168827871877e-05       5.815734807176e+01 
       2.730392521713e-05       7.225841080669e+01 
       3.437360529758e-05       8.977773175288e+01 
       4.327380520410e-05       1.115432150502e+02 
       5.447849303648e-05       1.385825825675e+02 
       6.858435927987e-05       1.721709345486e+02 
       8.634259274905e-05       2.138889748170e+02 
       1.086988841320e-04       2.656936742995e+02 
       1.368437874674e-04       3.300028220474e+02 
       1.722761214889e-04       4.097938526733e+02 
       2.168827871877e-04       5.087148752029e+02 
       2.730392521713e-04       6.312009965155e+02 
       3.437360529758e-04       7.825806140600e+02 
       4.327380520410e-04       9.691441358837e+02 
       5.447849303648e-04       1.198134748049e+03 
       6.858435927987e-04       1.477616429964e+03 
       8.634259274905e-04       1.816183294189e+03 
       1.086988841320e-03       2.222449496430e+03 
       1.368437874674e-03       2.704092408302e+03 
       1.722761214889e-03       3.266080501981e+03 
       2.168827871877e-03       3.908283290729e+03 
       2.730392521713e-03       4.622602032933e+03 
       3.437360529758e-03       5.389756670416e+03 
       4.327380520410e-03       6.175821501213e+03 
       5.447849303648e-03       6.928287700926e+03 
       6.858435927987e-03       7.580086757393e+03 
       8.634259274905e-03       8.042335907092e+03 
       1.086988841320e-02       8.214191416312e+03 
       1.368437874674e-02       7.992907077984e+03 
       1.722761213025e-02       7.304933732465e+03 
       2.168825521383e-02       6.167276286946e+03 
       2.729901677108e-02       4.769083523502e+03 
       3.413961235830e-02       3.507413182660e+03 
       4.057413554665e-02       2.814290409242e+03 
       4.517795614970e-02       2.533058685532e+03 
       4.886006496637e-02       2.384603440191e+03 
       5.209493107386e-02       2.281994834997e+03 
       5.508419266134e-02       2.193420652479e+03 
       5.793034840617e-02       2.104458286110e+03 
       6.069311228081e-02       2.008275991991e+03 
       6.341087384115e-02       1.902382602500e+03 
       6.611023438458e-02       1.787154886303e+03 
       6.881076617363e-02       1.664990286430e+03 
       7.152760586842e-02       1.539634621672e+03 
       7.427296769972e-02       1.415554838363e+03 
       7.705707572892e-02       1.297200488251e+03 
       7.988876414833e-02       1.188649487543e+03 
       8.277587811846e-02       1.093000166207e+03 
       8.572554957261e-02       1.012235457776e+03 
       8.874439174437e-02       9.470518328845e+02 
       9.183863916056e-02       8.969093245973e+02 
       9.501425000753e-02       8.599331275523e+02 
       9.827698188987e-02       8.332640967628e+02 
       1.016324483667e-01       8.131234043357e+02 
       1.050861613518e-01       7.951280294218e+02 
       1.086435629773e-01       7.748106234309e+02 
       1.123100495500e-01       7.483935433273e+02 
       1.160909895792e-01       7.135790954570e+02 
       1.199917374294e-01       6.702246219748e+02 
       1.240176438619e-01       6.205150278850e+02 
       1.281740645425e-01       5.683923186510e+02 
       1.324663674689e-01       5.184976906302e+02 
       1.368999401914e-01       4.749728306300e+02 
       1.414801976535e-01       4.404066150050e+02 
       1.462125914460e-01       4.154024560359e+02 
       1.511026212494e-01       3.985058029731e+02 
       1.561558492269e-01       3.865119929368e+02 
       1.613779181220e-01       3.753291485785e+02 
       1.667745738086e-01       3.612151442602e+02 
       1.723516930430e-01       3.418986129535e+02 
       1.781153171760e-01       3.177953479861e+02 
       1.840716926070e-01       2.917987804335e+02 
       1.902273188056e-01       2.677149638881e+02 
       1.965890048025e-01       2.481592708021e+02 
       2.031639351677e-01       2.336687264334e+02 
       2.099597466674e-01       2.230541159542e+02 
       2.169846170365e-01       2.139232658526e+02 
       2.242473676423e-01       2.036052250938e+02 
       2.317575822735e-01       1.909454629472e+02 
       2.395257449037e-01       1.769802653057e+02 
       2.475634000882e-01       1.637247249626e+02 
       2.558833407291e-01       1.527999459697e+02 
       2.644998293677e-01       1.443304645111e+02 
       2.734288610488e-01       1.368836949445e+02 
       2.826884783411e-01       1.290960090733e+02 
       2.922991525178e-01       1.205891313079e+02 
       3.022842495885e-01       1.121123667646e+02 
       3.126706063657e-01       1.046902950114e+02 
       3.234892508697e-01       9.836324563222e+01 
       3.347763143953e-01       9.246830639098e+01 
       3.465742014588e-01       8.641452424563e+01 
       3.589331117638e-01       8.049317721015e+01 
       3.719130504076e-01       7.505009464008e+01 
       3.855865273687e-01       7.008877236277e+01 
       4.000422495409e-01       6.533955598956e+01 
       4.153902741292e-01       6.067508659593e+01 
       4.317693682796e-01       5.627064781064e+01 
       4.493577955687e-01       5.215397662037e+01 
       4.683896008181e-01       4.814086861074e+01 
       4.891800515497e-01       4.427975064675e+01 
       5.121669983728e-01       4.056899582843e+01 
       5.379813262990e-01       3.693746325857e+01 
       5.675737411186e-01       3.337516948501e+01 
       6.024581921032e-01       2.982864982448e+01 
       6.452154530871e-01       2.624326489921e+01 
       7.006208167979e-01       2.253924821887e+01 
       7.783117802052e-01       1.861341062079e+01 
       8.984114103138e-01       1.441955540391e+01 
       1.092701192922e+00       1.029912145968e+01 
       1.370329606590e+00       7.101934177942e+00 
       1.724992655111e+00       4.953281502001e+00 
       2.171636210905e+00       3.501601373149e+00 
       2.733928010284e+00       2.494214601602e+00 
       3.441811446162e+00       1.777432129258e+00 
       4.332983892178e+00       1.257965145109e+00 
       5.454903530757e+00       8.783255673242e-01 
       6.867316673756e+00       6.017573281853e-01 
       8.645439471429e+00       4.031308343972e-01 
       1.088396344671e+01       2.637277849399e-01 
