# Matter power spectrum P(k) at redshift z=1
# for k=1.03717e-05 to 10.3856 h/Mpc,
# number of wavenumbers equal to 122
#    1:k (h/Mpc)              2:P (Mpc/h)^3        
       1.037169642320e-05       2.199524501442e+01 
       1.305719219058e-05       2.747628142013e+01 
       1.643803105540e-05       3.432309771280e+01 
       2.069425501551e-05       4.287599352387e+01 
       2.605252351717e-05       5.356000518944e+01 
       3.279818389713e-05       6.690597279024e+01 
       4.129046716880e-05       8.357682592997e+01 
       5.198161838365e-05       1.044002501377e+02 
       6.544098032937e-05       1.304093880829e+02 
       8.238531310937e-05       1.628931728502e+02 
       1.037169642320e-04       2.034585710242e+02 
       1.305719219058e-04       2.541066332999e+02 
       1.643803105540e-04       3.173246835334e+02 
       2.069425501551e-04       3.961956888525e+02 
       2.605252351717e-04       4.945241043941e+02 
       3.279818389713e-04       6.169731634059e+02 
       4.129046716880e-04       7.692011822738e+02 
       5.198161838365e-04       9.579736122540e+02 
       6.544098032937e-04       1.191215970020e+03 
       8.238531310937e-04       1.477966852751e+03 
       1.037169642320e-03       1.828186901873e+03 
       1.305719219058e-03       2.252327687452e+03 
       1.643803105540e-03       2.760404464139e+03 
       2.069425501551e-03       3.360311109670e+03 
       2.605252351717e-03       4.055476613990e+03 
       3.279818389713e-03       4.841782891169e+03 
       4.129046716880e-03       5.703956821687e+03 
       5.198161838365e-03       6.611807928764e+03 
       6.544098032937e-03       7.505345328227e+03 
       8.238531310937e-03       8.336522768631e+03 
       1.037169642320e-02       9.011976110730e+03 
       1.305719219058e-02       9.434626028184e+03 
       1.643803105540e-02       9.506972997227e+03 
       2.069425500009e-02       9.154063711445e+03 
       2.605250217847e-02       8.363497631174e+03 
       3.279337567653e-02       7.234797401017e+03 
       4.104596559863e-02       6.020139601582e+03 
       4.896003352235e-02       5.136753270533e+03 
       5.462765455644e-02       4.642841768249e+03 
       5.913375527779e-02       4.304913451360e+03 
       6.308003591514e-02       4.034726335178e+03 
       6.672021273348e-02       3.800060225674e+03 
       7.018228778317e-02       3.586616556313e+03 
       7.354043353454e-02       3.387674117457e+03 
       7.684214565657e-02       3.200417621169e+03 
       8.012023328757e-02       3.023585265582e+03 
       8.339877500124e-02       2.857127624453e+03 
       8.669635270993e-02       2.701386102024e+03 
       9.002793318620e-02       2.556874114104e+03 
       9.340602461863e-02       2.423831351205e+03 
       9.684141995255e-02       2.302086698290e+03 
       1.003436924755e-01       2.191097361549e+03 
       1.039215363818e-01       2.089766941971e+03 
       1.075830067247e-01       1.996645116088e+03 
       1.113356919542e-01       1.909860445352e+03 
       1.151868399990e-01       1.827590952713e+03 
       1.191434515316e-01       1.747970948951e+03 
       1.232123495480e-01       1.669579198643e+03 
       1.274002315409e-01       1.591513497156e+03 
       1.317137087072e-01       1.513547961941e+03 
       1.361593354238e-01       1.436180164633e+03 
       1.407436314281e-01       1.360452916581e+03 
       1.454730986057e-01       1.287608328723e+03 
       1.503542339358e-01       1.218857494389e+03 
       1.553935399101e-01       1.155114186613e+03 
       1.605975335876e-01       1.096638555183e+03 
       1.659727553516e-01       1.042930925349e+03 
       1.715257783735e-01       9.931163939115e+02 
       1.772632197479e-01       9.459923227951e+02 
       1.831917542421e-01       9.004371143500e+02 
       1.893181315862e-01       8.557667849134e+02 
       1.956491982173e-01       8.118916004841e+02 
       2.021919243887e-01       7.692995783560e+02 
       2.089534375534e-01       7.284845673788e+02 
       2.159410629403e-01       6.902317849461e+02 
       2.231623722723e-01       6.548886965631e+02 
       2.306252416238e-01       6.220069298172e+02 
       2.383379195094e-01       5.910574535333e+02 
       2.463091064296e-01       5.615201767671e+02 
       2.545480473104e-01       5.330273062190e+02 
       2.630646385641e-01       5.056935224241e+02 
       2.718695519064e-01       4.798904467689e+02 
       2.809743776116e-01       4.555967588954e+02 
       2.903917906265e-01       4.326516891077e+02 
       3.001357439331e-01       4.110851621626e+02 
       3.102216948415e-01       3.906949860690e+02 
       3.206668715968e-01       3.712198022222e+02 
       3.314905899502e-01       3.527729480308e+02 
       3.427146323772e-01       3.352985616176e+02 
       3.543637067264e-01       3.187426232111e+02 
       3.664660066858e-01       3.030979118137e+02 
       3.790539042177e-01       2.882048519474e+02 
       3.921648150073e-01       2.740897097302e+02 
       4.058422935167e-01       2.606230243764e+02 
       4.201374367748e-01       2.478382703122e+02 
       4.351107093077e-01       2.356498675853e+02 
       4.508343517302e-01       2.240230902459e+02 
       4.673956126086e-01       2.128804870164e+02 
       4.849011646671e-01       2.022334360870e+02 
       5.034832628360e-01       1.919886870568e+02 
       5.233085287291e-01       1.821183523979e+02 
       5.445908089208e-01       1.725822049298e+02 
       5.676105590421e-01       1.633124498108e+02 
       5.927450755461e-01       1.542541625630e+02 
       6.205175458965e-01       1.453407256708e+02 
       6.516804027593e-01       1.364855871501e+02 
       6.873649166599e-01       1.275795906092e+02 
       7.293674766099e-01       1.184782612758e+02 
       7.807396713794e-01       1.089699804044e+02 
       8.471050068889e-01       9.872603202040e+01 
       9.397710499522e-01       8.723406887718e+01 
       1.082392967423e+00       7.386102811902e+01 
       1.313425206648e+00       5.883944256882e+01 
       1.646191086730e+00       4.487432134927e+01 
       2.072209279051e+00       3.359497252214e+01 
       2.608755512964e+00       2.465171042392e+01 
       3.284228607023e+00       1.764400716540e+01 
       4.134598851523e+00       1.227344015818e+01 
       5.205151561757e+00       8.281807183516e+00 
       6.552897573336e+00       5.423109312262e+00 
       8.249609275957e+00       3.455623080238e+00 
       1.038564275488e+01       2.151319348283e+00 
