# Matter power spectrum P(k) at redshift z=0
# for k=1.01467e-05 to 10.1584 h/Mpc,
# number of wavenumbers equal to 122
#    1:k (h/Mpc)              2:P (Mpc/h)^3        
       1.014666478478e-05       6.606292698195e+01 
       1.277389414251e-05       8.234311262750e+01 
       1.608137994358e-05       1.026352241504e+02 
       2.024525786769e-05       1.279278416960e+02 
       2.548726959796e-05       1.594531052558e+02 
       3.208657137412e-05       1.987465441639e+02 
       4.039460008022e-05       2.477218095167e+02 
       5.085378854025e-05       3.087633723808e+02 
       6.402112667933e-05       3.848419167325e+02 
       8.059782326830e-05       4.796574000903e+02 
       1.014666478478e-04       5.978160666024e+02 
       1.277389414251e-04       7.450484843272e+02 
       1.608137994358e-04       9.284763447165e+02 
       2.024525786769e-04       1.156935499187e+03 
       2.548726959796e-04       1.441360909968e+03 
       3.208657137412e-04       1.795234594135e+03 
       4.039460008022e-04       2.235089149833e+03 
       5.085378854025e-04       2.781047450896e+03 
       6.402112667933e-04       3.457364386020e+03 
       8.059782326830e-04       4.292911454076e+03 
       1.014666478478e-03       5.321468890787e+03 
       1.277389414251e-03       6.581294433104e+03 
       1.608137994358e-03       8.114349804675e+03 
       2.024525786769e-03       9.963733320378e+03 
       2.548726959796e-03       1.216878215460e+04 
       3.208657137412e-03       1.475768696579e+04 
       4.039460008022e-03       1.773643493640e+04 
       5.085378854025e-03       2.107247422200e+04 
       6.402112667933e-03       2.467301261000e+04 
       8.059782326830e-03       2.836035959869e+04 
       1.014666478478e-02       3.183958613655e+04 
       1.277389414251e-02       3.467070052512e+04 
       1.608137994328e-02       3.628281132891e+04 
       2.024525686064e-02       3.607500612281e+04 
       2.548679180431e-02       3.369569514888e+04 
       3.204158286531e-02       2.953910552003e+04 
       3.934957526044e-02       2.534618101563e+04 
       4.497478468798e-02       2.296487683351e+04 
       4.918550934194e-02       2.162845580515e+04 
       5.274742047952e-02       2.070604270753e+04 
       5.597111480787e-02       1.996532130473e+04 
       5.900182274475e-02       1.930080920656e+04 
       6.191922868475e-02       1.865441315754e+04 
       6.477236320617e-02       1.799380219928e+04 
       6.759406947044e-02       1.730281211401e+04 
       7.040785829213e-02       1.657501939100e+04 
       7.323149893823e-02       1.581375593479e+04 
       7.607905040535e-02       1.503053153263e+04 
       7.896208224367e-02       1.424014333008e+04 
       8.189044494608e-02       1.346086088660e+04 
       8.487277586513e-02       1.271203773877e+04 
       8.791684255999e-02       1.201179415682e+04 
       9.102978223441e-02       1.137491555121e+04 
       9.421827247663e-02       1.081139075761e+04 
       9.748865521424e-02       1.032461183347e+04 
       1.008470279625e-01       9.911493020728e+03 
       1.042993116769e-01       9.561806203710e+03 
       1.078513015396e-01       9.259193276990e+03 
       1.115087050990e-01       8.982017779878e+03 
       1.152771709414e-01       8.706542683052e+03 
       1.191623102507e-01       8.411159296456e+03 
       1.231697130697e-01       8.079368837112e+03 
       1.273049607089e-01       7.704047360527e+03 
       1.315736355133e-01       7.290416916586e+03 
       1.359813290340e-01       6.853546576176e+03 
       1.405336495531e-01       6.417998399909e+03 
       1.452362298446e-01       6.008944189972e+03 
       1.500947360127e-01       5.648250871133e+03 
       1.551148782250e-01       5.347107959998e+03 
       1.603024241409e-01       5.103890577241e+03 
       1.656632158253e-01       4.903834216857e+03 
       1.712031909295e-01       4.724914538237e+03 
       1.769284089212e-01       4.538372359445e+03 
       1.828450831463e-01       4.324294975095e+03 
       1.889596195249e-01       4.078811901275e+03 
       1.952786627175e-01       3.815262679838e+03 
       2.018091506580e-01       3.556387815926e+03 
       2.085583784512e-01       3.324583905684e+03 
       2.155340727817e-01       3.132895622315e+03 
       2.227444781980e-01       2.978800657459e+03 
       2.301984569406e-01       2.844772919845e+03 
       2.379056043951e-01       2.709421418709e+03 
       2.458763828098e-01       2.558691832762e+03 
       2.541222766569e-01       2.393720932542e+03 
       2.626559739957e-01       2.230397817365e+03 
       2.714915794917e-01       2.085861288985e+03 
       2.806448664636e-01       1.965614760068e+03 
       2.901335776201e-01       1.861566516169e+03 
       2.999777872359e-01       1.758621689568e+03 
       3.102003417078e-01       1.648646107223e+03 
       3.208274012084e-01       1.536462809245e+03 
       3.318891132138e-01       1.433089547765e+03 
       3.434204600956e-01       1.343631505722e+03 
       3.554623393976e-01       1.261938244116e+03 
       3.680629594805e-01       1.179859416790e+03 
       3.812796691357e-01       1.096884529447e+03 
       3.951813945015e-01       1.018977968375e+03 
       4.098519419283e-01       9.486938968511e+02 
       4.253945618010e-01       8.816681356256e+02 
       4.419383924315e-01       8.147498255571e+02 
       4.596477830828e-01       7.509589307704e+02 
       4.787361622810e-01       6.914497225779e+02 
       4.994873359888e-01       6.331040555221e+02 
       5.222894275668e-01       5.763650904214e+02 
       5.476913493676e-01       5.218737198051e+02 
       5.765016579986e-01       4.679479045181e+02 
       6.099722813529e-01       4.149096681627e+02 
       6.501647454390e-01       3.615816312490e+02 
       7.007397486122e-01       3.072668815015e+02 
       7.687892745028e-01       2.506677699561e+02 
       8.691003038690e-01       1.908101253925e+02 
       1.030416412235e+00       1.298356383592e+02 
       1.279717565204e+00       7.878522607900e+01 
       1.610012570422e+00       4.591362612523e+01 
       2.026872241486e+00       2.645350846230e+01 
       2.551680939780e+00       1.510514751316e+01 
       3.212375977871e+00       8.555899236558e+00 
       4.044141750778e+00       4.810973763056e+00 
       5.091272818953e+00       2.687288339497e+00 
       6.409532730156e+00       1.491991946538e+00 
       8.069123631720e+00       8.237833910269e-01 
       1.015842479088e+01       4.525513706265e-01 
