# Matter power spectrum P(k) at redshift z=0.5
# for k=8.76879e-06 to 11.0505 h/Mpc,
# number of wavenumbers equal to 123
#    1:k (h/Mpc)              2:P (Mpc/h)^3        
       8.768793068384e-06       5.314497797697e+01 
       1.103925642455e-05       6.630581229754e+01 
       1.389760044018e-05       8.272567753808e+01 
       1.749604235711e-05       1.032115692018e+02 
       2.202621232919e-05       1.287701983674e+02 
       2.772935842679e-05       1.606573444243e+02 
       3.490919397623e-05       2.004393556641e+02 
       4.394807140193e-05       2.500696490734e+02 
       5.532734388724e-05       3.119837376588e+02 
       6.965299918672e-05       3.892170238229e+02 
       8.768793068384e-05       4.855502231792e+02 
       1.103925642455e-04       6.056877596908e+02 
       1.389760044018e-04       7.554745454518e+02 
       1.749604235711e-04       9.421552644133e+02 
       2.202621232919e-04       1.174676972161e+03 
       2.772935842679e-04       1.464028602840e+03 
       3.490919397623e-04       1.823598588389e+03 
       4.394807140193e-04       2.269514560060e+03 
       5.532734388724e-04       2.820911336606e+03 
       6.965299918672e-04       3.500058101517e+03 
       8.768793068384e-04       4.332229024406e+03 
       1.103925642455e-03       5.344993174958e+03 
       1.389760044018e-03       6.566398494838e+03 
       1.749604235711e-03       8.022040242965e+03 
       2.202621232919e-03       9.729741845150e+03 
       2.772935842679e-03       1.169241544732e+04 
       3.490919397623e-03       1.388865101697e+04 
       4.394807140193e-03       1.626013879960e+04 
       5.532734388724e-03       1.869634561530e+04 
       6.965299918672e-03       2.102616873671e+04 
       8.768793068384e-03       2.299097327040e+04 
       1.103925642455e-02       2.425342559137e+04 
       1.389760044014e-02       2.441816188649e+04 
       1.749604212151e-02       2.312872598754e+04 
       2.202605553846e-02       2.030004539956e+04 
       2.770990594465e-02       1.644727173252e+04 
       3.432313298399e-02       1.294127724540e+04 
       3.974786959620e-02       1.111683909170e+04 
       4.371181719484e-02       1.026093387216e+04 
       4.700486815683e-02       9.746803087620e+03 
       4.995659928336e-02       9.368404905713e+03 
       5.271585747241e-02       9.038018659773e+03 
       5.536222220576e-02       8.711661218819e+03 
       5.794375488197e-02       8.365584038008e+03 
       6.049219708965e-02       7.989354134283e+03 
       6.303001576161e-02       7.580189388385e+03 
       6.557403268684e-02       7.143616894393e+03 
       6.813745135516e-02       6.689178493488e+03 
       7.073106267075e-02       6.230053317535e+03 
       7.336399949441e-02       5.781291222172e+03 
       7.604422877371e-02       5.357304043447e+03 
       7.877888364866e-02       4.970885903785e+03 
       8.157449397130e-02       4.632099420835e+03 
       8.443715006160e-02       4.346026411353e+03 
       8.737262123303e-02       4.114123689958e+03 
       9.038644284456e-02       3.932630804246e+03 
       9.348398092946e-02       3.793719638912e+03 
       9.667048052199e-02       3.685196247464e+03 
       9.995110193532e-02       3.591965283121e+03 
       1.033309480313e-01       3.497704311882e+03 
       1.068150847242e-01       3.386963548056e+03 
       1.104085564290e-01       3.248655872980e+03 
       1.141163978129e-01       3.078611231803e+03 
       1.179436429718e-01       2.880621026461e+03 
       1.218953330022e-01       2.666796700353e+03 
       1.259765228344e-01       2.453204817872e+03 
       1.301922881345e-01       2.257219311756e+03 
       1.345477330384e-01       2.092112898899e+03 
       1.390479994594e-01       1.964325492968e+03 
       1.436982786933e-01       1.871992723531e+03 
       1.485038260334e-01       1.805197047870e+03 
       1.534699791061e-01       1.749588253897e+03 
       1.586021806257e-01       1.687602135026e+03 
       1.639060062798e-01       1.606494480358e+03 
       1.693871984601e-01       1.503945187713e+03 
       1.750517065875e-01       1.388852495585e+03 
       1.809057348276e-01       1.275447195033e+03 
       1.869557980753e-01       1.177302368567e+03 
       1.932087872156e-01       1.101722027021e+03 
       1.996720448469e-01       1.047068998694e+03 
       2.063534529154e-01       1.003248414642e+03 
       2.132615340588e-01       9.574210363814e+02 
       2.204055689351e-01       9.015057859395e+02 
       2.277957324456e-01       8.362532419994e+02 
       2.354432525986e-01       7.706326507249e+02 
       2.433605968717e-01       7.146132352430e+02 
       2.515616923969e-01       6.711053750636e+02 
       2.600621882537e-01       6.356911562096e+02 
       2.688797707821e-01       6.003530432536e+02 
       2.780345464002e-01       5.603738192280e+02 
       2.875495113135e-01       5.184666148004e+02 
       2.974511343236e-01       4.803161955330e+02 
       3.077700885869e-01       4.488379404445e+02 
       3.185421819998e-01       4.208956490448e+02 
       3.298095560737e-01       3.924054369762e+02 
       3.416222531885e-01       3.629478209105e+02 
       3.540402976767e-01       3.354769108929e+02 
       3.671365069071e-01       3.112985893851e+02 
       3.810003610159e-01       2.885705055255e+02 
       3.957434437933e-01       2.656345148412e+02 
       4.115072770614e-01       2.437863081190e+02 
       4.284749111609e-01       2.237825750390e+02 
       4.468886133669e-01       2.042458448884e+02 
       4.670778501222e-01       1.852695958599e+02 
       4.895054485798e-01       1.672589360055e+02 
       5.148475920779e-01       1.495390658729e+02 
       5.441407370947e-01       1.322411737299e+02 
       5.790704544251e-01       1.150311090429e+02 
       6.225849359676e-01       9.769983209331e+01 
       6.803020050700e-01       7.985860572468e+01 
       7.638253082598e-01       6.120563256784e+01 
       8.965963818889e-01       4.215783427247e+01 
       1.106508230472e+00       2.564584360584e+01 
       1.391199055402e+00       1.479677568504e+01 
       1.751384951825e+00       8.437173516248e+00 
       2.204862920316e+00       4.773732544868e+00 
       2.775757959863e+00       2.681734337104e+00 
       3.494472232662e+00       1.496766475066e+00 
       4.399279894507e+00       8.305183019637e-01 
       5.538365252790e+00       4.583759750556e-01 
       6.972388756536e+00       2.517111202883e-01 
       8.777717386511e+00       1.376017342972e-01 
       1.105049147543e+01       7.489995187046e-02 
