# Matter power spectrum P(k) at redshift z=2.5
# for k=1.12126e-05 to 11.2265 h/Mpc,
# number of wavenumbers equal to 122
#    1:k (h/Mpc)              2:P (Mpc/h)^3        
       1.121258664985e-05       5.766251046026e+00 
       1.411581026544e-05       7.176343865295e+00 
       1.777075225123e-05       8.931260615590e+00 
       2.237205159577e-05       1.111532115743e+01 
       2.816474426789e-05       1.383345996009e+01 
       3.545731227553e-05       1.721626420702e+01 
       4.463811145758e-05       2.142623726760e+01 
       5.619605284845e-05       2.666558666854e+01 
       7.074663897344e-05       3.318589931044e+01 
       8.906474160270e-05       4.130014965994e+01 
       1.121258664985e-04       5.139758056073e+01 
       1.411581026544e-04       6.396209429210e+01 
       1.777075225123e-04       7.959489477265e+01 
       2.237205159577e-04       9.904218344414e+01 
       2.816474426789e-04       1.232286987109e+02 
       3.545731227553e-04       1.532976950275e+02 
       4.463811145758e-04       1.906574209275e+02 
       5.619605284845e-04       2.370330825638e+02 
       7.074663897344e-04       2.945215142171e+02 
       8.906474160270e-04       3.656435182389e+02 
       1.121258664985e-03       4.533705370973e+02 
       1.411581026544e-03       5.611349424819e+02 
       1.777075225123e-03       6.928995853965e+02 
       2.237205159577e-03       8.529429524069e+02 
       2.816474426789e-03       1.045601992436e+03 
       3.545731227553e-03       1.274760842304e+03 
       4.463811145758e-03       1.543039318392e+03 
       5.619605284845e-03       1.850483428335e+03 
       7.074663897344e-03       2.192636685924e+03 
       8.906474160270e-03       2.557961272962e+03 
       1.121258664985e-02       2.924126042213e+03 
       1.411581026544e-02       3.254826610527e+03 
       1.777075225063e-02       3.497869264586e+03 
       2.237204981397e-02       3.591169621160e+03 
       2.816399689119e-02       3.485788057486e+03 
       3.539368377296e-02       3.192468481190e+03 
       4.329892130519e-02       2.853541671821e+03 
       4.926740449622e-02       2.645180575159e+03 
       5.377904822705e-02       2.518911944396e+03 
       5.761935113574e-02       2.427630489101e+03 
       6.110669516623e-02       2.352673552637e+03 
       6.439185978523e-02       2.284973294436e+03 
       6.755834569573e-02       2.219380993996e+03 
       7.065787809528e-02       2.152801465265e+03 
       7.372528353523e-02       2.083450994456e+03 
       7.678559568247e-02       2.010519851235e+03 
       7.985779990824e-02       1.934007081389e+03 
       8.295696151779e-02       1.854575041172e+03 
       8.609550963818e-02       1.773424229085e+03 
       8.928404987027e-02       1.692145083231e+03 
       9.253189929651e-02       1.612536809072e+03 
       9.584745032266e-02       1.536416305222e+03 
       9.923842484111e-02       1.465404978364e+03 
       1.027120557228e-01       1.400758783591e+03 
       1.062752187225e-01       1.343201761929e+03 
       1.099345296594e-01       1.292809088687e+03 
       1.136964167228e-01       1.248959897268e+03 
       1.175671746085e-01       1.210327631581e+03 
       1.215530051802e-01       1.175019344129e+03 
       1.256600480372e-01       1.140757674353e+03 
       1.298944035020e-01       1.105246137383e+03 
       1.342621499646e-01       1.066563374556e+03 
       1.387693571388e-01       1.023577782260e+03 
       1.434220965262e-01       9.762543992617e+02 
       1.482264502225e-01       9.257537207164e+02 
       1.531885190887e-01       8.742450363365e+02 
       1.583144312436e-01       8.244124226142e+02 
       1.636103517912e-01       7.788404367810e+02 
       1.690824946693e-01       7.392439909352e+02 
       1.747371374911e-01       7.060879594500e+02 
       1.805806402343e-01       6.784913968400e+02 
       1.866194686334e-01       6.540485107064e+02 
       1.928602231188e-01       6.297488388722e+02 
       1.993096741610e-01       6.030763429925e+02 
       2.059748048906e-01       5.729507447198e+02 
       2.128628619079e-01       5.400717673087e+02 
       2.199814152640e-01       5.066624502489e+02 
       2.273384287058e-01       4.755604239942e+02 
       2.349423414495e-01       4.488782478298e+02 
       2.428021629816e-01       4.269179758404e+02 
       2.509275827328e-01       4.081928357312e+02 
       2.593290969220e-01       3.901434571502e+02 
       2.680181554926e-01       3.704947863758e+02 
       2.770073328787e-01       3.487753832334e+02 
       2.863105274286e-01       3.265232660680e+02 
       2.959431957482e-01       3.060111186561e+02 
       3.059226301318e-01       2.886447589021e+02 
       3.162682897924e-01       2.738664002566e+02 
       3.270022000293e-01       2.597793747160e+02 
       3.381494381337e-01       2.448217383301e+02 
       3.497387312573e-01       2.290838703187e+02 
       3.618032004454e-01       2.140979929370e+02 
       3.743812977623e-01       2.010031856561e+02 
       3.875180017741e-01       1.893782970481e+02 
       4.012663635505e-01       1.778539901452e+02 
       4.156895355439e-01       1.659285397383e+02 
       4.308634770520e-01       1.544288722452e+02 
       4.468806257582e-01       1.441033604381e+02 
       4.638549782227e-01       1.344358569759e+02 
       4.819292747962e-01       1.246487293080e+02 
       5.012854136726e-01       1.151207293908e+02 
       5.221599743967e-01       1.063097815799e+02 
       5.448681152871e-01       9.767893515707e+01 
       5.698417619929e-01       8.913508934545e+01 
       5.976933566852e-01       8.096274334357e+01 
       6.293278848191e-01       7.280798675805e+01 
       6.661520309901e-01       6.474466627853e+01 
       7.104932876182e-01       5.657823093505e+01 
       7.665085984377e-01       4.820559198275e+01 
       8.423010476968e-01       3.940626147691e+01 
       9.548090643125e-01       3.002062866008e+01 
       1.136328970589e+00       2.042997649429e+01 
       1.414052758343e+00       1.246044053733e+01 
       1.779295987344e+00       7.323943939640e+00 
       2.239990730296e+00       4.252992900096e+00 
       2.819981231671e+00       2.445449579875e+00 
       3.550146033328e+00       1.393668193460e+00 
       4.469369056937e+00       7.879035111532e-01 
       5.626602280465e+00       4.422104487775e-01 
       7.083472592937e+00       2.465532237559e-01 
       8.917563650995e+00       1.366380708133e-01 
       1.122654749153e+01       7.530722399551e-02 
