# Matter power spectrum P(k) at redshift z=2.5
# for k=7.68589e-06 to 12.1966 h/Mpc,
# number of wavenumbers equal to 124
#    1:k (h/Mpc)              2:P (Mpc/h)^3        
       7.685889805510e-06       2.055615783835e+01 
       9.675961988406e-06       2.564307538111e+01 
       1.218131443076e-05       3.198874168455e+01 
       1.533536628594e-05       3.990455816491e+01 
       1.930608231654e-05       4.977887867950e+01 
       2.430491763048e-05       6.209597224185e+01 
       3.059807843657e-05       7.745953528863e+01 
       3.852069849588e-05       9.662188342829e+01 
       4.849468621652e-05       1.205199534954e+02 
       6.105119281496e-05       1.503194663863e+02 
       7.685889805510e-05       1.874685860897e+02 
       9.675961988406e-05       2.337619502998e+02 
       1.218131443076e-04       2.914150055958e+02 
       1.533536628594e-04       3.631459697017e+02 
       1.930608231654e-04       4.522577156524e+02 
       2.430491763048e-04       5.627022220875e+02 
       3.059807843658e-04       6.990940610121e+02 
       3.852069849588e-04       8.666163254806e+02 
       4.849468621652e-04       1.070740379381e+03 
       6.105119281496e-04       1.316686575003e+03 
       7.685889805510e-04       1.608628756056e+03 
       9.675961988406e-04       1.948762753360e+03 
       1.218131443076e-03       2.336232443457e+03 
       1.533536628594e-03       2.765367639952e+03 
       1.930608231654e-03       3.223274069964e+03 
       2.430491763048e-03       3.688621478217e+03 
       3.059807843658e-03       4.131575120762e+03 
       3.852069849588e-03       4.514990232254e+03 
       4.849468621652e-03       4.798051147765e+03 
       6.105119281496e-03       4.941578793142e+03 
       7.685889805510e-03       4.912913238073e+03 
       9.675961988406e-03       4.691986262134e+03 
       1.218131443076e-02       4.273862832447e+03 
       1.533536628593e-02       3.673936177916e+03 
       1.930608228910e-02       2.937483750909e+03 
       2.430488531815e-02       2.153401807366e+03 
       3.059169639266e-02       1.454074161092e+03 
       3.823059930205e-02       9.745383692012e+02 
       4.531305214387e-02       7.603873955263e+02 
       5.038077708195e-02       6.752699177872e+02 
       5.445133540952e-02       6.233805541462e+02 
       5.803561254476e-02       5.805126984789e+02 
       6.135202117165e-02       5.394783146965e+02 
       6.451219883653e-02       4.981257677136e+02 
       6.758143855317e-02       4.563141846095e+02 
       7.060183856084e-02       4.148130209090e+02 
       7.360263638086e-02       3.747596032945e+02 
       7.660538395688e-02       3.373270233216e+02 
       7.962677516290e-02       3.035073400585e+02 
       8.268029897607e-02       2.740050887852e+02 
       8.577725969272e-02       2.491611001873e+02 
       8.892743476354e-02       2.289712381832e+02 
       9.213951454420e-02       2.131068700060e+02 
       9.542140515743e-02       2.009694142642e+02 
       9.878044226783e-02       1.917343602397e+02 
       1.022235450210e-01       1.844444600001e+02 
       1.057573286614e-01       1.780646781670e+02 
       1.093881879065e-01       1.716090327094e+02 
       1.131223591808e-01       1.642722909875e+02 
       1.169659672933e-01       1.555863776762e+02 
       1.209250605183e-01       1.454877500347e+02 
       1.250056369689e-01       1.343196832060e+02 
       1.292136644471e-01       1.227447170409e+02 
       1.335550954814e-01       1.115554997415e+02 
       1.380358789505e-01       1.014703766841e+02 
       1.426619694833e-01       9.296847122327e+01 
       1.474393356934e-01       8.619182704255e+01 
       1.523739682150e-01       8.095386531168e+01 
       1.574718884600e-01       7.679997311115e+01 
       1.627391589752e-01       7.314727385736e+01 
       1.681818962627e-01       6.944234112121e+01 
       1.738062869094e-01       6.533883078638e+01 
       1.796186078632e-01       6.080137533363e+01 
       1.856252516889e-01       5.603804743357e+01 
       1.918327576351e-01       5.138236913162e+01 
       1.982478493579e-01       4.731624590631e+01 
       2.048774801697e-01       4.390304838448e+01 
       2.117288867344e-01       4.103080865273e+01 
       2.188096522154e-01       3.849760623979e+01 
       2.261277800127e-01       3.604570522847e+01 
       2.336917794226e-01       3.354976429825e+01 
       2.415107648276e-01       3.109341574778e+01 
       2.495945704063e-01       2.876840372762e+01 
       2.579538828679e-01       2.660857831055e+01 
       2.666003954044e-01       2.468552968560e+01 
       2.755469869655e-01       2.298025187087e+01 
       2.848079321682e-01       2.136440081559e+01 
       2.943991487472e-01       1.981695809565e+01 
       3.043384915806e-01       1.835450740046e+01 
       3.146461051625e-01       1.697482389343e+01 
       3.253448502507e-01       1.571822146769e+01 
       3.364608256778e-01       1.455085333755e+01 
       3.480240136170e-01       1.346927727022e+01 
       3.600690868562e-01       1.244524471835e+01 
       3.726364312925e-01       1.147694688968e+01 
       3.857734581387e-01       1.058702985356e+01 
       3.995363118094e-01       9.756507518266e+00 
       4.139921269196e-01       8.971122527320e+00 
       4.292220610002e-01       8.238854952658e+00 
       4.453254450310e-01       7.550195897514e+00 
       4.624255811117e-01       6.904853507527e+00 
       4.806780291171e-01       6.297776156509e+00 
       5.002827634355e-01       5.722818000052e+00 
       5.215025465958e-01       5.180981236399e+00 
       5.446916704401e-01       4.667118675321e+00 
       5.703427501225e-01       4.177674115041e+00 
       5.991665697037e-01       3.708517990152e+00 
       6.322360702745e-01       3.256159448982e+00 
       6.712634648473e-01       2.814431149173e+00 
       7.191750750048e-01       2.378051090532e+00 
       7.814019364872e-01       1.939122271387e+00 
       8.689342662802e-01       1.492164460164e+00 
       1.004678987457e+00       1.040040988389e+00 
       1.223998240409e+00       6.337039247568e-01 
       1.535573574421e+00       3.566647354411e-01 
       1.933028871707e+00       1.978584436919e-01 
       2.433538375386e+00       1.091565237780e-01 
       3.063643300679e+00       5.992816900858e-02 
       3.856898403898e+00       3.275161767331e-02 
       4.855547411375e+00       1.782466497066e-02 
       6.112772024352e+00       9.663627131838e-03 
       7.695524037961e+00       5.220256098243e-03 
       9.688090768462e+00       2.810518645940e-03 
       1.219658366019e+01       1.508334696154e-03 
