# Matter power spectrum P(k) at redshift z=1.5
# for k=1.10567e-05 to 11.0693 h/Mpc,
# number of wavenumbers equal to 122
#    1:k (h/Mpc)              2:P (Mpc/h)^3        
       1.105670301256e-05       6.864255100547e+00 
       1.391956439317e-05       8.570043237441e+00 
       1.752369333566e-05       1.069971811942e+01 
       2.206102284875e-05       1.335861122056e+01 
       2.777318227447e-05       1.667821967743e+01 
       3.496436493172e-05       2.082270276276e+01 
       4.401752751979e-05       2.599698435337e+01 
       5.541478395901e-05       3.245685548012e+01 
       6.976307971508e-05       4.052155423713e+01 
       8.782651385834e-05       5.058942006943e+01 
       1.105670301256e-04       6.315732744285e+01 
       1.391956439317e-04       7.884472964225e+01 
       1.752369333566e-04       9.842325585642e+01 
       2.206102284875e-04       1.228528400678e+02 
       2.777318227447e-04       1.533252544806e+02 
       3.496436493172e-04       1.913154994234e+02 
       4.401752751979e-04       2.386405565692e+02 
       5.541478395901e-04       2.975233042660e+02 
       6.976307971508e-04       3.706569398223e+02 
       8.782651385834e-04       4.612626225077e+02 
       1.105670301256e-03       5.731306816216e+02 
       1.391956439317e-03       7.106004316424e+02 
       1.752369333566e-03       8.785356819225e+02 
       2.206102284875e-03       1.082080359350e+03 
       2.777318227447e-03       1.326162108971e+03 
       3.496436493172e-03       1.614751976770e+03 
       4.401752751979e-03       1.949690633833e+03 
       5.541478395901e-03       2.325956653585e+03 
       6.976307971508e-03       2.739725055612e+03 
       8.782651385834e-03       3.171159646125e+03 
       1.105670301256e-02       3.589020040321e+03 
       1.391956439317e-02       3.945973983228e+03 
       1.752369333538e-02       4.177688138811e+03 
       2.206102185563e-02       4.213017802929e+03 
       2.777269865839e-02       4.004010523149e+03 
       3.491784984209e-02       3.580634235992e+03 
       4.291460235813e-02       3.124670849785e+03 
       4.909704054755e-02       2.854119980515e+03 
       5.371553081740e-02       2.698440327451e+03 
       5.761714233617e-02       2.589125667768e+03 
       6.114573846917e-02       2.500479773670e+03 
       6.446167259042e-02       2.420657557782e+03 
       6.765275327738e-02       2.343255904140e+03 
       7.077293305470e-02       2.264599882880e+03 
       7.385831280209e-02       2.182772297193e+03 
       7.693471287316e-02       2.097111911438e+03 
       8.002163392064e-02       2.007907862402e+03 
       8.313449527199e-02       1.916214576980e+03 
       8.628597915895e-02       1.823687985294e+03 
       8.948687843603e-02       1.732292225841e+03 
       9.274665298589e-02       1.644148865763e+03 
       9.607380716614e-02       1.561264952184e+03 
       9.947615293240e-02       1.485277596369e+03 
       1.029609974128e-01       1.417349724844e+03 
       1.065352790531e-01       1.357914903631e+03 
       1.102056678207e-01       1.306656670652e+03 
       1.139786397086e-01       1.262537764237e+03 
       1.178605324950e-01       1.223734433324e+03 
       1.218575876178e-01       1.187920479325e+03 
       1.259759816528e-01       1.152538322188e+03 
       1.302218499844e-01       1.115119217192e+03 
       1.346013046563e-01       1.073872453050e+03 
       1.391204479909e-01       1.027998123422e+03 
       1.437853833008e-01       9.779644180823e+02 
       1.486022238408e-01       9.254526376844e+02 
       1.535771010391e-01       8.730188605419e+02 
       1.587161729714e-01       8.234745098372e+02 
       1.640256340008e-01       7.792514263671e+02 
       1.695117264763e-01       7.416448429192e+02 
       1.751807553651e-01       7.105036481986e+02 
       1.810391066834e-01       6.843389727812e+02 
       1.870932705802e-01       6.606862348991e+02 
       1.933498699283e-01       6.364367162280e+02 
       1.998156952799e-01       6.093602589017e+02 
       2.064977470620e-01       5.789735471560e+02 
       2.134032859252e-01       5.466549879808e+02 
       2.205398922264e-01       5.148490582491e+02 
       2.279155357318e-01       4.860297159015e+02 
       2.355386567933e-01       4.616791509997e+02 
       2.434182604848e-01       4.415660180998e+02 
       2.515640255168e-01       4.238376096488e+02 
       2.599864301969e-01       4.061500295299e+02 
       2.686968983132e-01       3.869334087351e+02 
       2.777079686195e-01       3.662479284561e+02 
       2.870334926711e-01       3.457547551309e+02 
       2.966888671695e-01       3.273417325465e+02 
       3.066913088423e-01       3.116573742259e+02 
       3.170601823831e-01       2.978628380744e+02 
       3.278173953315e-01       2.843260241843e+02 
       3.389878783380e-01       2.701228294405e+02 
       3.506001755447e-01       2.557158053747e+02 
       3.626871785782e-01       2.422909278235e+02 
       3.752870500676e-01       2.304317621374e+02 
       3.884444004650e-01       2.195060697896e+02 
       4.022118081069e-01       2.086137071703e+02 
       4.166518114899e-01       1.976615021688e+02 
       4.318395621971e-01       1.872781386926e+02 
       4.478664195728e-01       1.777522937685e+02 
       4.648449162824e-01       1.686237492887e+02 
       4.829157670976e-01       1.595314731991e+02 
       5.022580053673e-01       1.507702895790e+02 
       5.231040548297e-01       1.424772599856e+02 
       5.457628644931e-01       1.343048071714e+02 
       5.706567540830e-01       1.262678125065e+02 
       5.983826782163e-01       1.184223683927e+02 
       6.298193851145e-01       1.105594597217e+02 
       6.663263876426e-01       1.026620539782e+02 
       7.101401427973e-01       9.454141260083e+01 
       7.652272039001e-01       8.600833935586e+01 
       8.392621627551e-01       7.673134083663e+01 
       9.482370028433e-01       6.626782046153e+01 
       1.123352198913e+00       5.440395761704e+01 
       1.394522555870e+00       4.253723825784e+01 
       1.754382844283e+00       3.271977225136e+01 
       2.208621236853e+00       2.489268320659e+01 
       2.780489361968e+00       1.859502613601e+01 
       3.500428714993e+00       1.355192630020e+01 
       4.406778661478e+00       9.590050945063e+00 
       5.547805641087e+00       6.570899236620e+00 
       6.984273501260e+00       4.358410162908e+00 
       8.792679393657e+00       2.805933440688e+00 
       1.106932752643e+01       1.760945053310e+00 
