# Matter power spectrum P(k) at redshift z=2
# for k=9.75729e-06 to 12.2974 h/Mpc,
# number of wavenumbers equal to 123
#    1:k (h/Mpc)              2:P (Mpc/h)^3        
       9.757290649088e-06       1.317910397512e+01 
       1.228370114840e-05       1.635668163822e+01 
       1.546426352660e-05       2.030037649474e+01 
       1.946835432832e-05       2.519488434077e+01 
       2.450920598974e-05       3.126940242915e+01 
       3.085526224338e-05       3.880834995320e+01 
       3.884447372577e-05       4.816462520250e+01 
       4.890229508114e-05       5.977603690325e+01 
       6.156434197270e-05       7.418559352751e+01 
       7.750491456982e-05       9.206653271430e+01 
       9.757290649088e-05       1.142530494432e+02 
       1.228370114840e-04       1.417777839590e+02 
       1.546426352660e-04       1.759171228436e+02 
       1.946835432832e-04       2.182450118391e+02 
       2.450920598974e-04       2.706951884420e+02 
       3.085526224338e-04       3.356299202117e+02 
       3.884447372577e-04       4.159099448671e+02 
       4.890229508114e-04       5.149548590156e+02 
       6.156434197270e-04       6.367761480175e+02 
       7.750491456982e-04       7.859594641201e+02 
       9.757290649088e-04       9.675734161322e+02 
       1.228370114840e-03       1.186981212933e+03 
       1.546426352660e-03       1.449472457258e+03 
       1.946835432832e-03       1.759543470221e+03 
       2.450920598974e-03       2.119727677956e+03 
       3.085526224338e-03       2.529057657579e+03 
       3.884447372577e-03       2.981179904724e+03 
       4.890229508114e-03       3.462007908473e+03 
       6.156434197270e-03       3.945731411381e+03 
       7.750491456982e-03       4.398390463905e+03 
       9.757290649088e-03       4.768024215903e+03 
       1.228370114840e-02       4.990723611868e+03 
       1.546426352660e-02       4.994211196898e+03 
       1.946835425978e-02       4.715814329686e+03 
       2.450914176197e-02       4.141771346159e+03 
       3.084473338560e-02       3.364235459955e+03 
       3.843725472463e-02       2.624497690669e+03 
       4.513738709655e-02       2.207796336085e+03 
       4.995273282701e-02       2.017077800600e+03 
       5.387496172468e-02       1.904422832894e+03 
       5.735420316199e-02       1.821746373829e+03 
       6.058699763172e-02       1.750085951814e+03 
       6.367564916426e-02       1.680316924280e+03 
       6.668077302593e-02       1.607828614168e+03 
       6.964183086739e-02       1.530604404612e+03 
       7.258643803175e-02       1.448373935050e+03 
       7.553507798383e-02       1.362145649653e+03 
       7.850370080475e-02       1.273815029358e+03 
       8.150525302966e-02       1.185827951978e+03 
       8.455062704068e-02       1.100836751240e+03 
       8.764927604267e-02       1.021360508361e+03 
       9.080962671927e-02       9.495410139371e+02 
       9.403936432333e-02       8.868866308823e+02 
       9.734563442353e-02       8.341561157642e+02 
       1.007351884805e-01       7.912665946118e+02 
       1.042144905156e-01       7.573254261928e+02 
       1.077897961714e-01       7.306613276021e+02 
       1.114672117683e-01       7.089516110016e+02 
       1.152527386161e-01       6.894282211614e+02 
       1.191523063182e-01       6.692210468630e+02 
       1.231717978116e-01       6.457750475408e+02 
       1.273170682192e-01       6.174458948981e+02 
       1.315939591527e-01       5.838082842311e+02 
       1.360083098096e-01       5.459390549968e+02 
       1.405659660150e-01       5.061003442500e+02 
       1.452727882327e-01       4.672116748861e+02 
       1.501346594903e-01       4.321073061668e+02 
       1.551574941135e-01       4.027967892639e+02 
       1.603472481307e-01       3.800243902902e+02 
       1.657099321930e-01       3.631343610426e+02 
       1.712516278388e-01       3.501361590357e+02 
       1.769785079232e-01       3.383717398253e+02 
       1.828968620311e-01       3.252615262339e+02 
       1.890131276897e-01       3.089146560103e+02 
       1.953339282121e-01       2.892910202142e+02 
       2.018661180300e-01       2.681288520698e+02 
       2.086168364271e-01       2.479702905031e+02 
       2.155935706724e-01       2.307856795205e+02 
       2.228042296892e-01       2.173084827038e+02 
       2.302572295945e-01       2.069775673370e+02 
       2.379615927250e-01       1.981074367225e+02 
       2.459270621548e-01       1.887038512681e+02 
       2.541642342314e-01       1.777677805324e+02 
       2.626847123571e-01       1.657708078059e+02 
       2.715012861656e-01       1.541082108523e+02 
       2.806281414699e-01       1.441487460724e+02 
       2.900811079735e-01       1.361419284217e+02 
       2.998779538949e-01       1.291606588252e+02 
       3.100387395452e-01       1.221218768185e+02 
       3.205862458156e-01       1.145304722066e+02 
       3.315464988955e-01       1.069046007633e+02 
       3.429494199932e-01       1.000360053130e+02 
       3.548296393252e-01       9.412488269318e+01 
       3.672275286510e-01       8.867546234320e+01 
       3.801905284746e-01       8.316878601198e+01 
       3.937748784098e-01       7.770508639091e+01 
       4.080479081531e-01       7.263371850431e+01 
       4.230911221572e-01       6.800889388368e+01 
       4.390044308694e-01       6.360376005220e+01 
       4.559120761697e-01       5.925952238553e+01 
       4.739711249821e-01       5.512602578941e+01 
       4.933839704261e-01       5.125939538473e+01 
       5.144172971222e-01       4.748953621563e+01 
       5.374318774297e-01       4.384007865984e+01 
       5.629313308662e-01       4.032455721361e+01 
       5.916458233165e-01       3.686641775522e+01 
       6.246840750723e-01       3.346162638851e+01 
       6.638283381760e-01       3.005031088195e+01 
       7.121519730029e-01       2.657792467347e+01 
       7.754180357346e-01       2.295574147228e+01 
       8.653901607348e-01       1.907604510417e+01 
       1.006377299468e+00       1.490279972980e+01 
       1.232748776243e+00       1.084720257229e+01 
       1.548212542083e+00       7.734381377269e+00 
       1.949000373246e+00       5.586107358606e+00 
       2.453645719422e+00       4.077873313597e+00 
       3.088956947469e+00       2.988008605017e+00 
       3.888766397107e+00       2.181277821462e+00 
       4.895666837850e+00       1.574980715579e+00 
       6.163279389847e+00       1.117615394380e+00 
       7.759109043866e+00       7.755143010170e-01 
       9.768139548204e+00       5.245577330593e-01 
       1.229735910319e+01       3.454378447241e-01 
