# Matter power spectrum P(k) at redshift z=2
# for k=1.1683e-05 to 11.6996 h/Mpc,
# number of wavenumbers equal to 122
#    1:k (h/Mpc)              2:P (Mpc/h)^3        
       1.168303036994e-05       6.638194576732e+00 
       1.470806381949e-05       8.254668684169e+00 
       1.851635530064e-05       1.026476729125e+01 
       2.331071022179e-05       1.276433745603e+01 
       2.934644546518e-05       1.587255993010e+01 
       3.694498594194e-05       1.973762456308e+01 
       4.651098164069e-05       2.454378691779e+01 
       5.855385671496e-05       3.052012580862e+01 
       7.371493817701e-05       3.795141758403e+01 
       9.280160889988e-05       4.719161375945e+01 
       1.168303036994e-04       5.868051959107e+01 
       1.470806381949e-04       7.296438257937e+01 
       1.851635530064e-04       9.072117243574e+01 
       2.331071022179e-04       1.127914275650e+02 
       2.934644546518e-04       1.402154577786e+02 
       3.694498594194e-04       1.742774321320e+02 
       4.651098164069e-04       2.165561906999e+02 
       5.855385671496e-04       2.689813032706e+02 
       7.371493817701e-04       3.338908425260e+02 
       9.280160889988e-04       4.140848359000e+02 
       1.168303036994e-03       5.128661427116e+02 
       1.470806381949e-03       6.340570742840e+02 
       1.851635530064e-03       7.819647140322e+02 
       2.331071022179e-03       9.612111747637e+02 
       2.934644546518e-03       1.176424848788e+03 
       3.694498594194e-03       1.431654730654e+03 
       4.651098164069e-03       1.726316737638e+03 
       5.855385671496e-03       2.064826379648e+03 
       7.371493817701e-03       2.439930810525e+03 
       9.280160889988e-03       2.839415407117e+03 
       1.168303036994e-02       3.240963357410e+03 
       1.470806381948e-02       3.610561043377e+03 
       1.851635529567e-02       3.901941854285e+03 
       2.331070136253e-02       4.063164466735e+03 
       2.934399027746e-02       4.054736461242e+03 
       3.679647008087e-02       3.882221361286e+03 
       4.430579182522e-02       3.654977860856e+03 
       4.973021229060e-02       3.492396402927e+03 
       5.397210484144e-02       3.369979231093e+03 
       5.765394315106e-02       3.265868324225e+03 
       6.103329063367e-02       3.170650823917e+03 
       6.423741883059e-02       3.079684079795e+03 
       6.733899376821e-02       2.990476499473e+03 
       7.038404210555e-02       2.901763479594e+03 
       7.340408970996e-02       2.813013303412e+03 
       7.642211410150e-02       2.724207076026e+03 
       7.945574474084e-02       2.635734769622e+03 
       8.251911062712e-02       2.548206286772e+03 
       8.562396895615e-02       2.462376353813e+03 
       8.878042685341e-02       2.379031534200e+03 
       9.199742054102e-02       2.298866096099e+03 
       9.528304347982e-02       2.222420200001e+03 
       9.864477691166e-02       2.149946099974e+03 
       1.020896552505e-01       2.081419815714e+03 
       1.056243867251e-01       2.016459045553e+03 
       1.092554425038e-01       1.954393014055e+03 
       1.129891231280e-01       1.894321941409e+03 
       1.168316083026e-01       1.835243970880e+03 
       1.207889943078e-01       1.776208851978e+03 
       1.248673221250e-01       1.716486116906e+03 
       1.290725985948e-01       1.655732004173e+03 
       1.334108124118e-01       1.594073874006e+03 
       1.378879464174e-01       1.532128024341e+03 
       1.425099874229e-01       1.470876076286e+03 
       1.472829346493e-01       1.411449365712e+03 
       1.522128077744e-01       1.354853376788e+03 
       1.573056555172e-01       1.301707545136e+03 
       1.625675656526e-01       1.252077632065e+03 
       1.680046773260e-01       1.205409712709e+03 
       1.736231965227e-01       1.160759541095e+03 
       1.794294155341e-01       1.117021373760e+03 
       1.854297372614e-01       1.073375053261e+03 
       1.916307051902e-01       1.029513917044e+03 
       1.980390398842e-01       9.858093725472e+02 
       2.046616828644e-01       9.431037517428e+02 
       2.115058487867e-01       9.023298753737e+02 
       2.185790869097e-01       8.641372580759e+02 
       2.258893529633e-01       8.284828660591e+02 
       2.334450927133e-01       7.946557507391e+02 
       2.412553387732e-01       7.618735975352e+02 
       2.493298225774e-01       7.297281882556e+02 
       2.576791039134e-01       6.981840931966e+02 
       2.663147210669e-01       6.675413500146e+02 
       2.752493654984e-01       6.383260251515e+02 
       2.844970861147e-01       6.107679308296e+02 
       2.940735297155e-01       5.846342430498e+02 
       3.039962262071e-01       5.595611334609e+02 
       3.142849298678e-01       5.352040397599e+02 
       3.249620315832e-01       5.115775544992e+02 
       3.360530619312e-01       4.889520694407e+02 
       3.475873118549e-01       4.673893394238e+02 
       3.595986072702e-01       4.468079336667e+02 
       3.721262876424e-01       4.269639554990e+02 
       3.852164583586e-01       4.077828199467e+02 
       3.989236158859e-01       3.893123955878e+02 
       4.133127885059e-01       3.715997300262e+02 
       4.284624026157e-01       3.545157367195e+02 
       4.444681901282e-01       3.379800255589e+02 
       4.614486226082e-01       3.219646422098e+02 
       4.795526399620e-01       3.064338983248e+02 
       4.989709249250e-01       2.913163130968e+02 
       5.199528334245e-01       2.765322316706e+02 
       5.428326805731e-01       2.620110913787e+02 
       5.680721649525e-01       2.476617921538e+02 
       5.963320181374e-01       2.333618446063e+02 
       6.285996559488e-01       2.189586556976e+02 
       6.664313853314e-01       2.042323857112e+02 
       7.124468092078e-01       1.888675975997e+02 
       7.714214420842e-01       1.723690772694e+02 
       8.528599996069e-01       1.539779400396e+02 
       9.766975159440e-01       1.326961830541e+02 
       1.177579303646e+00       1.085142762680e+02 
       1.473162768294e+00       8.519429136420e+01 
       1.854258066556e+00       6.565985721653e+01 
       2.334369926882e+00       4.943002286624e+01 
       2.938797618053e+00       3.601327248900e+01 
       3.699727001487e+00       2.524506756106e+01 
       4.657680338873e+00       1.701880472108e+01 
       5.863672138621e+00       1.108251004132e+01 
       7.381925861740e+00       7.016092886617e+00 
       9.293294055325e+00       4.345310206354e+00 
       1.169956404552e+01       2.646913595798e+00 
