# Matter power spectrum P(k) at redshift z=1.5
# for k=1.19363e-05 to 11.9493 h/Mpc,
# number of wavenumbers equal to 122
#    1:k (h/Mpc)              2:P (Mpc/h)^3        
       1.193628117692e-05       7.043597623117e+00 
       1.502688769594e-05       8.797597356569e+00 
       1.891773078060e-05       1.098837345129e+01 
       2.381601201318e-05       1.372468468911e+01 
       2.998258273098e-05       1.714236337977e+01 
       3.774583531126e-05       2.141105258222e+01 
       4.751919126274e-05       2.674261021985e+01 
       5.982311742857e-05       3.340158593745e+01 
       7.531284274357e-05       4.171828688047e+01 
       9.481325156434e-05       5.210502859482e+01 
       1.193628117692e-04       6.507632164601e+01 
       1.502688769594e-04       8.127385029070e+01 
       1.891773078060e-04       1.014972258943e+02 
       2.381601201318e-04       1.267415220560e+02 
       2.998258273098e-04       1.582424844619e+02 
       3.774583531126e-04       1.975298438689e+02 
       4.751919126274e-04       2.464881338666e+02 
       5.982311742857e-04       3.074225531371e+02 
       7.531284274357e-04       3.831247105666e+02 
       9.481325156434e-04       4.769301801385e+02 
       1.193628117692e-03       5.927572827331e+02 
       1.502688769594e-03       7.351098808114e+02 
       1.891773078060e-03       9.089600836656e+02 
       2.381601201318e-03       1.119588408535e+03 
       2.998258273098e-03       1.372004413311e+03 
       3.774583531126e-03       1.670177028396e+03 
       4.751919126274e-03       2.015818706653e+03 
       5.982311742857e-03       2.402437766067e+03 
       7.531284274357e-03       2.827607241316e+03 
       9.481325156434e-03       3.270199934410e+03 
       1.193628117692e-02       3.698666781998e+03 
       1.502688769594e-02       4.065963719693e+03 
       1.891773078041e-02       4.308994660852e+03 
       2.381601126354e-02       4.358375932805e+03 
       2.998218207832e-02       4.166582366747e+03 
       3.770425987937e-02       3.758765649842e+03 
       4.645905216080e-02       3.302352931003e+03 
       5.333990429521e-02       3.020627903180e+03 
       5.844405055460e-02       2.856018582240e+03 
       6.273501769318e-02       2.738387117306e+03 
       6.660564646906e-02       2.641581664784e+03 
       7.023737898952e-02       2.553765087410e+03 
       7.372887065935e-02       2.468696988476e+03 
       7.714042979917e-02       2.382930836535e+03 
       8.051225350887e-02       2.294717295887e+03 
       8.387300253598e-02       2.203635955457e+03 
       8.724426678388e-02       2.109989523187e+03 
       9.064307996028e-02       2.014915653205e+03 
       9.408342545713e-02       1.919997680519e+03 
       9.757718383503e-02       1.827076450370e+03 
       1.011347535388e-01       1.738054067616e+03 
       1.047654713140e-01       1.654727641123e+03 
       1.084779049072e-01       1.578411030001e+03 
       1.122800615084e-01       1.509994893580e+03 
       1.161795389148e-01       1.449625250603e+03 
       1.201836367211e-01       1.396780663061e+03 
       1.242994389540e-01       1.350241557801e+03 
       1.285338759026e-01       1.308176706206e+03 
       1.328937705453e-01       1.268340701612e+03 
       1.373858734508e-01       1.228400427598e+03 
       1.420168890213e-01       1.186278197652e+03 
       1.467934952768e-01       1.140595981682e+03 
       1.517223589362e-01       1.090986422597e+03 
       1.568101472508e-01       1.038254911029e+03 
       1.620635378555e-01       9.841997999223e+02 
       1.674892277750e-01       9.312371087954e+02 
       1.730939426425e-01       8.818370183299e+02 
       1.788844471409e-01       8.379070132452e+02 
       1.848675576422e-01       8.001795248215e+02 
       1.910501580039e-01       7.681526877210e+02 
       1.974392194647e-01       7.400479281867e+02 
       2.040418255770e-01       7.135073040646e+02 
       2.108652031060e-01       6.861294105520e+02 
       2.179167598333e-01       6.562092475460e+02 
       2.252041302194e-01       6.237574817978e+02 
       2.327352299209e-01       5.903978424707e+02 
       2.405183202259e-01       5.584572257953e+02 
       2.485620835919e-01       5.298234421307e+02 
       2.568757116396e-01       5.052164175277e+02 
       2.654690072135e-01       4.840546101160e+02 
       2.743525024724e-01       4.645654042717e+02 
       2.835375954601e-01       4.448310314149e+02 
       2.930367082571e-01       4.239464928243e+02 
       3.028634706826e-01       4.024024782124e+02 
       3.130329346657e-01       3.816384107090e+02 
       3.235618259204e-01       3.630319630576e+02 
       3.344688415753e-01       3.467330983854e+02 
       3.457750050914e-01       3.317465592102e+02 
       3.575040934135e-01       3.168948665753e+02 
       3.696831562074e-01       3.017060283574e+02 
       3.823431537846e-01       2.868154549176e+02 
       3.955197497285e-01       2.730277677834e+02 
       4.092543075500e-01       2.605227130864e+02 
       4.235951598462e-01       2.486687884939e+02 
       4.385992464425e-01       2.369222811962e+02 
       4.543342597447e-01       2.254016700546e+02 
       4.708814990580e-01       2.145414684529e+02 
       4.883397344905e-01       2.043360989649e+02 
       5.068305388092e-01       1.944605414040e+02 
       5.265058043615e-01       1.847671819775e+02 
       5.475585999003e-01       1.754396879409e+02 
       5.702392888051e-01       1.664742891387e+02 
       5.948802265613e-01       1.576471445422e+02 
       6.219350142227e-01       1.489868146254e+02 
       6.520436096734e-01       1.404481237409e+02 
       6.861458929560e-01       1.318894263203e+02 
       7.256918299546e-01       1.232363339715e+02 
       7.730583235879e-01       1.142978484393e+02 
       8.324431588446e-01       1.048352362982e+02 
       9.119310388784e-01       9.445328220062e+01 
       1.028328926244e+00       8.257680549961e+01 
       1.214826551159e+00       6.876298644162e+01 
       1.505604272105e+00       5.433021935827e+01 
       1.893846759490e+00       4.187192700346e+01 
       2.384189188251e+00       3.166137356375e+01 
       3.001516295919e+00       2.332862890360e+01 
       3.778685138826e+00       1.665319339032e+01 
       4.757082744437e+00       1.148034629092e+01 
       5.988812352980e+00       7.644827414466e+00 
       7.539468057633e+00       4.934637650682e+00 
       9.491627929164e+00       3.103171587376e+00 
       1.194925159932e+01       1.910938643970e+00 
