# Matter power spectrum P(k) at redshift z=1.5
# for k=1.13662e-05 to 11.3802 h/Mpc,
# number of wavenumbers equal to 122
#    1:k (h/Mpc)              2:P (Mpc/h)^3        
       1.136615615965e-05       8.316373218968e+00 
       1.430914282380e-05       1.041894348045e+01 
       1.801414352188e-05       1.305308414360e+01 
       2.267846305140e-05       1.635318574817e+01 
       2.855049343584e-05       2.048759945182e+01 
       3.594294170565e-05       2.566723266124e+01 
       4.524948268787e-05       3.215628129247e+01 
       5.696572362630e-05       4.028568035770e+01 
       7.171559707440e-05       5.046991797303e+01 
       9.028458757895e-05       6.322804619039e+01 
       1.136615615965e-04       7.920989433812e+01 
       1.430914282380e-04       9.922869155343e+01 
       1.801414352188e-04       1.243015090207e+02 
       2.267846305140e-04       1.556990947026e+02 
       2.855049343584e-04       1.950067049094e+02 
       3.594294170565e-04       2.441972806172e+02 
       4.524948268787e-04       3.057175367293e+02 
       5.696572362630e-04       3.825859535316e+02 
       7.171559707440e-04       4.784992001828e+02 
       9.028458757895e-04       5.979405993639e+02 
       1.136615615965e-03       7.462612004897e+02 
       1.430914282380e-03       9.297102024432e+02 
       1.801414352188e-03       1.155601094540e+03 
       2.267846305140e-03       1.431944110298e+03 
       2.855049343584e-03       1.767044762059e+03 
       3.594294170565e-03       2.168663446362e+03 
       4.524948268787e-03       2.636982729867e+03 
       5.696572362630e-03       3.181814707423e+03 
       7.171559707440e-03       3.792862014052e+03 
       9.028458757895e-03       4.450893761080e+03 
       1.136615615965e-02       5.117294587556e+03 
       1.430914282380e-02       5.728186173019e+03 
       1.801414352129e-02       6.189951174647e+03 
       2.267846129677e-02       6.390367202097e+03 
       2.854975183901e-02       6.238044594166e+03 
       3.587941104538e-02       5.746572005853e+03 
       4.390409899195e-02       5.162843244028e+03 
       4.996955506240e-02       4.800703431747e+03 
       5.455169131776e-02       4.580927777369e+03 
       5.845052062945e-02       4.421937517260e+03 
       6.199028677648e-02       4.291193037413e+03 
       6.532442461186e-02       4.172847937553e+03 
       6.853785691920e-02       4.057928047734e+03 
       7.168316806815e-02       3.940977445661e+03 
       7.479575188335e-02       3.818924659309e+03 
       7.790104331621e-02       3.690339032593e+03 
       8.101832797287e-02       3.555283786605e+03 
       8.416290662598e-02       3.414969227388e+03 
       8.734740068899e-02       3.271593716391e+03 
       9.058257837649e-02       3.128001919160e+03 
       9.387789852111e-02       2.987443137566e+03 
       9.724188035891e-02       2.853213732261e+03 
       1.006823618174e-01       2.728257717236e+03 
       1.042066839370e-01       2.614786395412e+03 
       1.078218248965e-01       2.514136367022e+03 
       1.115344987508e-01       2.426401709536e+03 
       1.153512288922e-01       2.350479023147e+03 
       1.192784030513e-01       2.283978960392e+03 
       1.233223146072e-01       2.223466917081e+03 
       1.274891936431e-01       2.164821285566e+03 
       1.317852303004e-01       2.103868148829e+03 
       1.362165923996e-01       2.037114305962e+03 
       1.407894389055e-01       1.962513833059e+03 
       1.455099305561e-01       1.879999521901e+03 
       1.503842388024e-01       1.791685204872e+03 
       1.554185541005e-01       1.701589824941e+03 
       1.606190945259e-01       1.614555840080e+03 
       1.659921156361e-01       1.535359834174e+03 
       1.715439224827e-01       1.467067174139e+03 
       1.772808846552e-01       1.410472071420e+03 
       1.832094552277e-01       1.363936928763e+03 
       1.893361944705e-01       1.323039266561e+03 
       1.956677991904e-01       1.282205610794e+03 
       2.022111385633e-01       1.236757172948e+03 
       2.089732973471e-01       1.184708257828e+03 
       2.159616274006e-01       1.127439413548e+03 
       2.231838085032e-01       1.069109448111e+03 
       2.306479195858e-01       1.015000876181e+03 
       2.383625216516e-01       9.689717941952e+02 
       2.463367539113e-01       9.315194440695e+02 
       2.545804449982e-01       8.997965995777e+02 
       2.631042415964e-01       8.690365637543e+02 
       2.719197574414e-01       8.350196857287e+02 
       2.810397464823e-01       7.969162184203e+02 
       2.904783050995e-01       7.576968251635e+02 
       3.002511097228e-01       7.216086604122e+02 
       3.103756981309e-01       6.912358114953e+02 
       3.208718052869e-01       6.654365649969e+02 
       3.317617680386e-01       6.406284951571e+02 
       3.430710177372e-01       6.139543742520e+02 
       3.548286863362e-01       5.856727388317e+02 
       3.670683606301e-01       5.586822464119e+02 
       3.798290321811e-01       5.350429187873e+02 
       3.931563090653e-01       5.138954535934e+02 
       4.071039828089e-01       4.927010392846e+02 
       4.217360846050e-01       4.706167447425e+02 
       4.371296270323e-01       4.491946254024e+02 
       4.533783244998e-01       4.297531933684e+02 
       4.705977409519e-01       4.112999189999e+02 
       4.889325691093e-01       3.924549993340e+02 
       5.085671800450e-01       3.739308992599e+02 
       5.297413466668e-01       3.564890688272e+02 
       5.527744453599e-01       3.391408545407e+02 
       5.781041239471e-01       3.217294929705e+02 
       6.063508379537e-01       3.046718490583e+02 
       6.384312331373e-01       2.872945609294e+02 
       6.757697724694e-01       2.696061360905e+02 
       7.207226576704e-01       2.510919488910e+02 
       7.774965888260e-01       2.312466446620e+02 
       8.542885155260e-01       2.091106197880e+02 
       9.682306618938e-01       1.833037486593e+02 
       1.152030886585e+00       1.528531964290e+02 
       1.433424657172e+00       1.210613839161e+02 
       1.803656074431e+00       9.321540414985e+01 
       2.270657873804e+00       6.974627848329e+01 
       2.858588876967e+00       5.027684714912e+01 
       3.598750179080e+00       3.477766139952e+01 
       4.530558051143e+00       2.313705612232e+01 
       5.703634660193e+00       1.489504336130e+01 
       7.180450613307e+00       9.342542502986e+00 
       9.039651745225e+00       5.744425842240e+00 
       1.138024729583e+01       3.480048109424e+00 
