# Matter power spectrum P(k) at redshift z=0.5
# for k=1.11189e-05 to 11.1307 h/Mpc,
# number of wavenumbers equal to 122
#    1:k (h/Mpc)              2:P (Mpc/h)^3        
       1.111887212663e-05       1.582374388732e+01 
       1.399783067071e-05       1.982707914977e+01 
       1.762222474135e-05       2.484322263130e+01 
       2.218506653923e-05       3.112839082349e+01 
       2.792934402858e-05       3.900359367975e+01 
       3.516096093232e-05       4.887102069305e+01 
       4.426502722081e-05       6.123451921441e+01 
       5.572636762203e-05       7.672523515325e+01 
       7.015534030636e-05       9.613364881726e+01 
       8.832034068474e-05       1.204495415579e+02 
       1.111887212663e-04       1.509117561263e+02 
       1.399783067071e-04       1.890698787140e+02 
       1.762222474135e-04       2.368602803995e+02 
       2.218506653923e-04       2.966989457590e+02 
       2.792934402858e-04       3.715931652723e+02 
       3.516096093232e-04       4.652729570695e+02 
       4.426502722081e-04       5.823406113073e+02 
       5.572636762203e-04       7.284328543816e+02 
       7.015534030636e-04       9.103852342744e+02 
       8.832034068474e-04       1.136382732909e+03 
       1.111887212663e-03       1.416067364711e+03 
       1.399783067071e-03       1.760511017368e+03 
       1.762222474135e-03       2.181915423768e+03 
       2.218506653923e-03       2.693081594332e+03 
       2.792934402858e-03       3.306008182784e+03 
       3.516096093232e-03       4.029863018021e+03 
       4.426502722081e-03       4.867898254768e+03 
       5.572636762203e-03       5.796833412614e+03 
       7.015534030636e-03       6.817249716373e+03 
       8.832034068474e-03       7.870512052063e+03 
       1.111887212663e-02       8.875033775033e+03 
       1.399783067071e-02       9.710622226177e+03 
       1.762222474121e-02       1.021788177765e+04 
       2.218506596965e-02       1.022643512328e+04 
       2.792902309565e-02       9.627368252386e+03 
       3.512619280346e-02       8.508022866427e+03 
       4.334161103321e-02       7.314892997689e+03 
       4.986237291387e-02       6.608991456512e+03 
       5.468083496602e-02       6.218644202343e+03 
       5.872027343790e-02       5.951747396258e+03 
       6.235855222202e-02       5.738601119136e+03 
       6.576925039987e-02       5.548069065985e+03 
       6.904636755870e-02       5.363517020261e+03 
       7.224719904745e-02       5.175776525640e+03 
       7.540984949714e-02       4.980476667688e+03 
       7.856143981548e-02       4.775899109883e+03 
       8.172237004447e-02       4.563194604856e+03 
       8.490871505931e-02       4.345045881085e+03 
       8.813365691771e-02       4.125904818295e+03 
       9.140838490803e-02       3.910797865766e+03 
       9.474268455846e-02       3.704778432083e+03 
       9.814533622574e-02       3.512706080496e+03 
       1.016243923971e-01       3.338475335656e+03 
       1.051873750483e-01       3.184621799754e+03 
       1.088414187028e-01       3.051895814094e+03 
       1.125933756221e-01       2.939169145437e+03 
       1.164498939620e-01       2.843568911866e+03 
       1.204174762436e-01       2.760497052659e+03 
       1.245025232549e-01       2.684076920197e+03 
       1.287113670528e-01       2.607974728846e+03 
       1.330502957781e-01       2.526296037377e+03 
       1.375255723604e-01       2.434865924966e+03 
       1.421434487683e-01       2.331961205419e+03 
       1.469101771783e-01       2.219132313049e+03 
       1.518320192513e-01       2.100852831580e+03 
       1.569152545866e-01       1.983510172771e+03 
       1.621661893485e-01       1.873926269136e+03 
       1.675911660105e-01       1.777680499830e+03 
       1.731965751356e-01       1.697422247512e+03 
       1.789888700905e-01       1.632423466333e+03 
       1.849745855791e-01       1.578534916158e+03 
       1.911603608729e-01       1.529656077531e+03 
       1.975529686121e-01       1.478648762184e+03 
       2.041593500552e-01       1.420199448841e+03 
       2.109866576724e-01       1.353543177059e+03 
       2.180423060132e-01       1.282526755402e+03 
       2.253340318475e-01       1.213330418160e+03 
       2.328699646805e-01       1.151566020698e+03 
       2.406587089110e-01       1.100216004559e+03 
       2.487094391315e-01       1.058381834824e+03 
       2.570320104017e-01       1.021425536080e+03 
       2.656370857770e-01       9.838100160107e+02 
       2.745362839804e-01       9.422715264152e+02 
       2.837423509120e-01       8.973836435793e+02 
       2.932693597608e-01       8.531687208447e+02 
       3.031329458935e-01       8.139187789610e+02 
       3.133505845699e-01       7.807138098852e+02 
       3.239419220285e-01       7.512841589281e+02 
       3.349291738430e-01       7.220277210572e+02 
       3.463376090128e-01       6.910801742456e+02 
       3.581961445164e-01       6.598426205508e+02 
       3.705380838005e-01       6.308671849512e+02 
       3.834020450297e-01       6.052077941470e+02 
       3.968331426887e-01       5.812667190320e+02 
       4.108845120900e-01       5.572456079549e+02 
       4.256193050311e-01       5.331172142371e+02 
       4.411133436727e-01       5.102729255579e+02 
       4.574587112059e-01       4.890566679190e+02 
       4.747687037489e-01       4.685342041578e+02 
       4.931848069842e-01       4.480771218364e+02 
       5.128867651019e-01       4.282543206497e+02 
       5.341075165328e-01       4.092476293241e+02 
       5.571560569739e-01       3.903770561441e+02 
       5.824537355759e-01       3.716799587587e+02 
       6.105943800035e-01       3.531648115978e+02 
       6.424489990188e-01       3.344052499200e+02 
       6.793591835549e-01       3.152518116733e+02 
       7.235198812262e-01       2.952153994170e+02 
       7.787983466681e-01       2.736801801540e+02 
       8.526234142375e-01       2.495803824855e+02 
       9.604162767357e-01       2.212489253480e+02 
       1.132818899165e+00       1.869314327973e+02 
       1.402600102979e+00       1.489808955577e+02 
       1.764112105652e+00       1.144138573307e+02 
       2.220860999767e+00       8.513739474703e+01 
       2.795898280302e+00       6.104417194939e+01 
       3.519827393839e+00       4.209791201580e+01 
       4.431200151233e+00       2.800741380412e+01 
       5.578550475133e+00       1.807563744980e+01 
       7.022978954122e+00       1.138422710542e+01 
       8.841406671840e+00       7.034803901015e+00 
       1.113067153519e+01       4.284666520211e+00 
