# Matter power spectrum P(k) at redshift z=2.5
# for k=1.07236e-05 to 10.7347 h/Mpc,
# number of wavenumbers equal to 122
#    1:k (h/Mpc)              2:P (Mpc/h)^3        
       1.072364813386e-05       7.539324222192e+00 
       1.350027314286e-05       9.351943266318e+00 
       1.699583692571e-05       1.160034766065e+01 
       2.139649100048e-05       1.438929914874e+01 
       2.693658624373e-05       1.784873679875e+01 
       3.391115292922e-05       2.213981972415e+01 
       4.269161216583e-05       2.746241126066e+01 
       5.374555542602e-05       3.406434843327e+01 
       6.766164549681e-05       4.225289765363e+01 
       8.518096491974e-05       5.240889081255e+01 
       1.072364813386e-04       6.500411841299e+01 
       1.350027314286e-04       8.062261904247e+01 
       1.699583692571e-04       9.998653840549e+01 
       2.139649100048e-04       1.239871431142e+02 
       2.693658624373e-04       1.537212579149e+02 
       3.391115292922e-04       1.905326372695e+02 
       4.269161216583e-04       2.360562593279e+02 
       5.374555542602e-04       2.922608918818e+02 
       6.766164549681e-04       3.614814445657e+02 
       8.518096491974e-04       4.464285820284e+02 
       1.072364813386e-03       5.501613954340e+02 
       1.350027314286e-03       6.760099176201e+02 
       1.699583692571e-03       8.274207788998e+02 
       2.139649100048e-03       1.007634492842e+03 
       2.693658624373e-03       1.219101371058e+03 
       3.391115292922e-03       1.462663193313e+03 
       4.269161216583e-03       1.736478775558e+03 
       5.374555542602e-03       2.033519565682e+03 
       6.766164549681e-03       2.344000364873e+03 
       8.518096491974e-03       2.648469446580e+03 
       1.072364813386e-02       2.919591033177e+03 
       1.350027314286e-02       3.121593394297e+03 
       1.699583692563e-02       3.212528530582e+03 
       2.139649062157e-02       3.153139419984e+03 
       2.693635124231e-02       2.926556241758e+03 
       3.388362406836e-02       2.567669484189e+03 
       4.190503080650e-02       2.197383713060e+03 
       4.839171484437e-02       1.970008461819e+03 
       5.315325184940e-02       1.838446923419e+03 
       5.712430376765e-02       1.743855925330e+03 
       6.069111500343e-02       1.665535530250e+03 
       6.402937996864e-02       1.594722314160e+03 
       6.723354482742e-02       1.527133271244e+03 
       7.036087287518e-02       1.460633244367e+03 
       7.344929482025e-02       1.394311029366e+03 
       7.652572146757e-02       1.328044241483e+03 
       7.961034113869e-02       1.262240376931e+03 
       8.271902596733e-02       1.197641926776e+03 
       8.586476640145e-02       1.135169518514e+03 
       8.905857047890e-02       1.075774996324e+03 
       9.231005119090e-02       1.020316022639e+03 
       9.562782332054e-02       9.694330945982e+02 
       9.901977916191e-02       9.234671547833e+02 
       1.024932845399e-01       8.824122657226e+02 
       1.060553207780e-01       8.458748181746e+02 
       1.097125890170e-01       8.131034664560e+02 
       1.134715876900e-01       7.830643726004e+02 
       1.173386704663e-01       7.545528716520e+02 
       1.213200897526e-01       7.263508216848e+02 
       1.254220293934e-01       6.974210896408e+02 
       1.296506292582e-01       6.670930704716e+02 
       1.340120037703e-01       6.352100703206e+02 
       1.385122560092e-01       6.021854449692e+02 
       1.431574887411e-01       5.689172683396e+02 
       1.479538135440e-01       5.365843850959e+02 
       1.529073590780e-01       5.063453665033e+02 
       1.580242794729e-01       4.790637931404e+02 
       1.633107637616e-01       4.550447172666e+02 
       1.687730472520e-01       4.340099825074e+02 
       1.744174257192e-01       4.151209067508e+02 
       1.802502732797e-01       3.972272614533e+02 
       1.862780648060e-01       3.792495923474e+02 
       1.925074037339e-01       3.605264942978e+02 
       1.989450561197e-01       3.410668040987e+02 
       2.055979918192e-01       3.214739542776e+02 
       2.124734336951e-01       3.027012397475e+02 
       2.195789158221e-01       2.855976023461e+02 
       2.269223517600e-01       2.704755467430e+02 
       2.345121141213e-01       2.569288631942e+02 
       2.423571268838e-01       2.442622927798e+02 
       2.504669722162e-01       2.318841381318e+02 
       2.588520140160e-01       2.194478509810e+02 
       2.675235409455e-01       2.070415984649e+02 
       2.764939325241e-01       1.951623834352e+02 
       2.857768528651e-01       1.842324628619e+02 
       2.953874780035e-01       1.742908222716e+02 
       3.053427645620e-01       1.650794589216e+02 
       3.156617699004e-01       1.561844820573e+02 
       3.263660371226e-01       1.474448459095e+02 
       3.374800626894e-01       1.390367280949e+02 
       3.490318704090e-01       1.311355655967e+02 
       3.610537239495e-01       1.238114736421e+02 
       3.735830218661e-01       1.168897044908e+02 
       3.866634361345e-01       1.102210487190e+02 
       4.003463800185e-01       1.038002826070e+02 
       4.146929280675e-01       9.773393215851e+01 
       4.297763671821e-01       9.199415134822e+01 
       4.456856449046e-01       8.650755462393e+01 
       4.625301199526e-01       8.123788927559e+01 
       4.804462472412e-01       7.619602966884e+01 
       4.996072130332e-01       7.136814282609e+01 
       5.202372053406e-01       6.671507502256e+01 
       5.426332199724e-01       6.220837433728e+01 
       5.671996077878e-01       5.783786875107e+01 
       5.945051652956e-01       5.356161158944e+01 
       6.253822719277e-01       4.934683775777e+01 
       6.611094011842e-01       4.514513338550e+01 
       7.037709461549e-01       4.089344287388e+01 
       7.570238387096e-01       3.650233751749e+01 
       8.278601466388e-01       3.184088032457e+01 
       9.307537275694e-01       2.674498019300e+01 
       1.094754952009e+00       2.118131867300e+01 
       1.352972201673e+00       1.582871422784e+01 
       1.701357008344e+00       1.169430434576e+01 
       2.141850483859e+00       8.682987321645e+00 
       2.696429907170e+00       6.439843411475e+00 
       3.394604131219e+00       4.735139158549e+00 
       4.273553403773e+00       3.428569685560e+00 
       5.380084978669e+00       2.431347439608e+00 
       6.773125697258e+00       1.682096243870e+00 
       8.526860057555e+00       1.132731451708e+00 
       1.073468080927e+01       7.418353162346e-01 
