# Matter power spectrum P(k) at redshift z=0.5
# for k=1.15145e-05 to 11.5308 h/Mpc,
# number of wavenumbers equal to 122
#    1:k (h/Mpc)              2:P (Mpc/h)^3        
       1.151451021032e-05       2.191084549256e+01 
       1.449590950813e-05       2.728404255849e+01 
       1.824926884686e-05       3.397489573986e+01 
       2.297446829797e-05       4.230651285647e+01 
       2.892314196278e-05       5.268120983596e+01 
       3.641207840587e-05       6.559994222727e+01 
       4.584009080139e-05       8.168640877659e+01 
       5.770925518883e-05       1.017171054743e+02 
       7.265164785293e-05       1.266586347606e+02 
       9.146300569077e-05       1.577139989364e+02 
       1.151451021032e-04       1.963799793586e+02 
       1.449590950813e-04       2.445179693497e+02 
       1.824926884686e-04       3.044410709366e+02 
       2.297446829797e-04       3.790203600633e+02 
       2.892314196278e-04       4.718131080549e+02 
       3.641207840587e-04       5.872148903857e+02 
       4.584009080139e-04       7.306355935295e+02 
       5.770925518883e-04       9.086961301508e+02 
       7.265164785293e-04       1.129438385310e+03 
       9.146300569077e-04       1.402535412078e+03 
       1.151451021032e-03       1.739475767216e+03 
       1.449590950813e-03       2.153655384268e+03 
       1.824926884686e-03       2.660122191954e+03 
       2.297446829797e-03       3.275332512838e+03 
       2.892314196278e-03       4.015892560393e+03 
       3.641207840587e-03       4.896632770007e+03 
       4.584009080139e-03       5.927513462384e+03 
       5.770925518883e-03       7.108821793438e+03 
       7.265164785293e-03       8.424153590441e+03 
       9.146300569077e-03       9.831861347580e+03 
       1.151451021032e-02       1.125338473248e+04 
       1.449590950813e-02       1.256285394395e+04 
       1.824926884363e-02       1.358467708012e+04 
       2.297446192307e-02       1.411521724946e+04 
       2.892122022052e-02       1.399842041045e+04 
       3.628741694580e-02       1.326666335117e+04 
       4.384903023120e-02       1.236766914759e+04 
       4.934480290908e-02       1.176827131223e+04 
       5.361308288944e-02       1.134579359304e+04 
       5.730383598211e-02       1.100099140108e+04 
       6.068428712585e-02       1.069202748825e+04 
       6.388535880393e-02       1.039736986188e+04 
       6.698134709487e-02       1.010559514786e+04 
       7.001910120953e-02       9.810150136697e+03 
       7.303059947687e-02       9.508111523059e+03 
       7.603908376668e-02       9.198808371989e+03 
       7.906234433532e-02       8.883712341530e+03 
       8.211461025078e-02       8.565792942526e+03 
       8.520770128664e-02       8.249018031090e+03 
       8.835176299045e-02       7.937840087841e+03 
       9.155575387230e-02       7.636948970770e+03 
       9.482777856966e-02       7.350406065131e+03 
       9.817532164711e-02       7.081361307995e+03 
       1.016054151669e-01       6.831375351586e+03 
       1.051247608316e-01       6.600406752668e+03 
       1.087398201684e-01       6.386587082935e+03 
       1.124568817273e-01       6.186349093082e+03 
       1.162821114358e-01       5.994500117049e+03 
       1.202215904312e-01       5.805629217519e+03 
       1.242813435027e-01       5.614013621754e+03 
       1.284673604856e-01       5.415395819113e+03 
       1.327856124277e-01       5.207502925458e+03 
       1.372420639976e-01       4.991054719769e+03 
       1.418426833743e-01       4.769413998554e+03 
       1.465934507062e-01       4.548316066309e+03 
       1.515003661309e-01       4.334249585352e+03 
       1.565694582851e-01       4.133293630919e+03 
       1.618067941972e-01       3.949213934912e+03 
       1.672184914300e-01       3.782447056173e+03 
       1.728107333251e-01       3.629872486484e+03 
       1.785897881927e-01       3.485765307297e+03 
       1.845620332793e-01       3.343383585452e+03 
       1.907339843506e-01       3.197878345605e+03 
       1.971123317286e-01       3.046692942290e+03 
       2.037039836491e-01       2.892028501990e+03 
       2.105161178455e-01       2.739733861655e+03 
       2.175562423415e-01       2.596290635508e+03 
       2.248322665554e-01       2.465261421456e+03 
       2.323525839942e-01       2.346330050701e+03 
       2.401261680699e-01       2.236044330459e+03 
       2.481626829257e-01       2.129162946548e+03 
       2.564726116347e-01       2.021558238576e+03 
       2.650674047778e-01       1.912934380483e+03 
       2.739596532597e-01       1.806437636774e+03 
       2.831632903453e-01       1.705982107181e+03 
       2.926938293910e-01       1.613827929468e+03 
       3.025686457223e-01       1.528533590462e+03 
       3.128073137542e-01       1.446489642636e+03 
       3.234320140196e-01       1.365453168726e+03 
       3.344680296385e-01       1.285766657318e+03 
       3.459443584860e-01       1.209809534141e+03 
       3.578944767381e-01       1.138922575184e+03 
       3.703573028675e-01       1.072179530661e+03 
       3.833784305362e-01       1.007626037096e+03 
       3.970117273281e-01       9.446643955286e+02 
       4.113214390395e-01       8.843564822169e+02 
       4.263850047871e-01       8.272847495934e+02 
       4.422968910103e-01       7.726446655579e+02 
       4.591739179347e-01       7.197256651002e+02 
       4.771628261627e-01       6.686232299657e+02 
       4.964512998628e-01       6.195910905419e+02 
       5.172844942657e-01       5.721441796027e+02 
       5.399906504551e-01       5.258980434924e+02 
       5.650223504894e-01       4.809079509997e+02 
       5.930260223700e-01       4.367013549902e+02 
       6.249654142557e-01       3.929573978537e+02 
       6.623550842264e-01       3.492067155186e+02 
       7.077351743624e-01       3.047817160440e+02 
       7.657165391790e-01       2.587683003852e+02 
       8.454375982983e-01       2.100220312319e+02 
       9.660674755749e-01       1.578029614324e+02 
       1.161689345139e+00       1.053860036978e+02 
       1.451971339484e+00       6.389549033154e+01 
       1.827504437027e+00       3.766643542719e+01 
       2.300688242526e+00       2.194204002274e+01 
       2.896394888134e+00       1.265260644428e+01 
       3.646345127262e+00       7.229256917014e+00 
       4.590476540882e+00       4.096671245849e+00 
       5.779067569561e+00       2.304171944892e+00 
       7.275415019796e+00       1.287243721616e+00 
       9.159204849771e+00       7.147091336993e-01 
       1.153075573720e+01       3.945945141064e-01 
