# Matter power spectrum P(k) at redshift z=2.5
# for k=8.74765e-06 to 11.0261 h/Mpc,
# number of wavenumbers equal to 123
#    1:k (h/Mpc)              2:P (Mpc/h)^3        
       8.747653052087e-06       1.194955928346e+01 
       1.101264272083e-05       1.494380287994e+01 
       1.386409577227e-05       1.868830510899e+01 
       1.745386247925e-05       2.337103849090e+01 
       2.197311100909e-05       2.922704900689e+01 
       2.766250782552e-05       3.655023366554e+01 
       3.482503405550e-05       4.570803156617e+01 
       4.384212033907e-05       5.715976287369e+01 
       5.519395940179e-05       7.147945773085e+01 
       6.948507806845e-05       8.938422566124e+01 
       8.747653052087e-05       1.117693689721e+02 
       1.101264272083e-04       1.397515707089e+02 
       1.386409577227e-04       1.747215034731e+02 
       1.745386247925e-04       2.184068804739e+02 
       2.197311100909e-04       2.729460501956e+02 
       2.766250782552e-04       3.409701260234e+02 
       3.482503405550e-04       4.256875423194e+02 
       4.384212033907e-04       5.309581095664e+02 
       5.519395940179e-04       6.613343376596e+02 
       6.948507806845e-04       8.220396738747e+02 
       8.747653052087e-04       1.018853842725e+03 
       1.101264272083e-03       1.257871112377e+03 
       1.386409577227e-03       1.545083243021e+03 
       1.745386247925e-03       1.885588479336e+03 
       2.197311100909e-03       2.282097145348e+03 
       2.766250782552e-03       2.733155135654e+03 
       3.482503405550e-03       3.230965201010e+03 
       4.384212033907e-03       3.758543825328e+03 
       5.519395940179e-03       4.286859865273e+03 
       6.948507806845e-03       4.772268045030e+03 
       8.747653052087e-03       5.153480264918e+03 
       1.101264272083e-02       5.353062361459e+03 
       1.386409577226e-02       5.282529121290e+03 
       1.745386244959e-02       4.866297501895e+03 
       2.197307760990e-02       4.095150355420e+03 
       2.765614828646e-02       3.102766324535e+03 
       3.454490603972e-02       2.205093169794e+03 
       4.087084851290e-02       1.736641605143e+03 
       4.539893508602e-02       1.560432916484e+03 
       4.904620395435e-02       1.478927703133e+03 
       5.226250686246e-02       1.431116935464e+03 
       5.524093710650e-02       1.393671699976e+03 
       5.808054654635e-02       1.355197002207e+03 
       6.083941585528e-02       1.309604332147e+03 
       6.355506439748e-02       1.253970004602e+03 
       6.625358856122e-02       1.187654561742e+03 
       6.895424839820e-02       1.111819541487e+03 
       7.167197792828e-02       1.029012519212e+03 
       7.441885485227e-02       9.427190016998e+02 
       7.720500854615e-02       8.568531083235e+02 
       8.003920606190e-02       7.752924312163e+02 
       8.292924414866e-02       7.014040858580e+02 
       8.588221940857e-02       6.377143060648e+02 
       8.890471908182e-02       5.857616481134e+02 
       9.200295848631e-02       5.460082382875e+02 
       9.518288159636e-02       5.179089648206e+02 
       9.845023552106e-02       4.999707402480e+02 
       1.018106261057e-01       4.898155555290e+02 
       1.052695596383e-01       4.842713205647e+02 
       1.088324741944e-01       4.796278715189e+02 
       1.125047632025e-01       4.720594183005e+02 
       1.162917931815e-01       4.583537413032e+02 
       1.201989171817e-01       4.366697774255e+02 
       1.242314851810e-01       4.071531025222e+02 
       1.283948525056e-01       3.719813755582e+02 
       1.326943872205e-01       3.348160792710e+02 
       1.371354773636e-01       2.998109149085e+02 
       1.417235388436e-01       2.704756509858e+02 
       1.464640247977e-01       2.488686434360e+02 
       1.513624371789e-01       2.352585241841e+02 
       1.564243413393e-01       2.281559747294e+02 
       1.616553843574e-01       2.248518249050e+02 
       1.670613178617e-01       2.213025650379e+02 
       1.726480260976e-01       2.139922172486e+02 
       1.784215599976e-01       2.013299019071e+02 
       1.843881780376e-01       1.843045273162e+02 
       1.905543947087e-01       1.657909060053e+02 
       1.969270375120e-01       1.491522900683e+02 
       2.035133135008e-01       1.368504730671e+02 
       2.103208865756e-01       1.294056281967e+02 
       2.173579669831e-01       1.252093223013e+02 
       2.246334148179e-01       1.215174431519e+02 
       2.321568597925e-01       1.158145131710e+02 
       2.399388401617e-01       1.072768204026e+02 
       2.479909645163e-01       9.738548269685e+01 
       2.563261012503e-01       8.855881041925e+01 
       2.649586019508e-01       8.222790815736e+01 
       2.739045668848e-01       7.814026533366e+01 
       2.831821633277e-01       7.462240055205e+01 
       2.928120109689e-01       7.010839253601e+01 
       3.028176533963e-01       6.447918551976e+01 
       3.132261412790e-01       5.893628224962e+01 
       3.240687621698e-01       5.461999274564e+01 
       3.353819651398e-01       5.135530108537e+01 
       3.472085477655e-01       4.816689145157e+01 
       3.595992015482e-01       4.448461769968e+01 
       3.726145549502e-01       4.076388731725e+01 
       3.863279196968e-01       3.764756497124e+01 
       4.008290509818e-01       3.499366048382e+01 
       4.162294024900e-01       3.223086783288e+01 
       4.326696416117e-01       2.941868009662e+01 
       4.503306814274e-01       2.694989226430e+01 
       4.694503665002e-01       2.463053052002e+01 
       4.903495958067e-01       2.228348763197e+01 
       5.134748957689e-01       2.009851944885e+01 
       5.394711475931e-01       1.798044511763e+01 
       5.693129178879e-01       1.589846627298e+01 
       6.045576172589e-01       1.386025398882e+01 
       6.478715859650e-01       1.182051713282e+01 
       7.042132586266e-01       9.742573224413e+00 
       7.836339465999e-01       7.590051075977e+00 
       9.070553148110e-01       5.374206697178e+00 
       1.106268117469e+00       3.343223052800e+00 
       1.388201317967e+00       1.927703143190e+00 
       1.747524938779e+00       1.094403949456e+00 
       2.200002932269e+00       6.168119636852e-01 
       2.769639596954e+00       3.453807327243e-01 
       3.486769670117e+00       1.922503444815e-01 
       4.389582942783e+00       1.064324466644e-01 
       5.526157513848e+00       5.862912413270e-02 
       6.957020123760e+00       3.214788439707e-02 
       8.758369424165e+00       1.755251515947e-02 
       1.102613383396e+01       9.545427815267e-03 
