# Matter power spectrum P(k) at redshift z=0
# for k=1.07811e-05 to 10.7948 h/Mpc,
# number of wavenumbers equal to 122
#    1:k (h/Mpc)              2:P (Mpc/h)^3        
       1.078111866024e-05       3.951418671672e+01 
       1.357262424895e-05       4.953164586834e+01 
       1.708692157173e-05       6.208860774435e+01 
       2.151115977599e-05       7.782885970237e+01 
       2.708094567916e-05       9.755930192786e+01 
       3.409289069091e-05       1.222912898038e+02 
       4.292040645231e-05       1.532923754757e+02 
       5.403359036734e-05       1.921510121482e+02 
       6.802426000392e-05       2.408575143880e+02 
       8.563746953743e-05       3.019051036270e+02 
       1.078111866024e-04       3.784157648179e+02 
       1.357262424895e-04       4.742964356439e+02 
       1.708692157173e-04       5.944317274668e+02 
       2.151115977599e-04       7.449196439332e+02 
       2.708094567916e-04       9.333560243526e+02 
       3.409289069091e-04       1.169171093971e+03 
       4.292040645231e-04       1.464016594719e+03 
       5.403359036734e-04       1.832194558682e+03 
       6.802426000392e-04       2.291109080306e+03 
       8.563746953743e-04       2.861705055373e+03 
       1.078111866024e-03       3.568806336881e+03 
       1.357262424895e-03       4.441152746960e+03 
       1.708692157173e-03       5.510645929078e+03 
       2.151115977599e-03       6.811370750773e+03 
       2.708094567916e-03       8.376296989227e+03 
       3.409289069091e-03       1.023240404259e+04 
       4.292040645231e-03       1.239310523935e+04 
       5.403359036734e-03       1.484689570807e+04 
       6.802426000392e-03       1.754158734477e+04 
       8.563746953743e-03       2.036631814695e+04 
       1.078111866024e-02       2.312833070271e+04 
       1.357262424895e-02       2.552904202621e+04 
       1.708692157105e-02       2.717549504217e+04 
       2.151115782942e-02       2.762940396005e+04 
       2.708015612690e-02       2.660184980396e+04 
       3.402749325750e-02       2.427105411412e+04 
       4.158098764538e-02       2.173699164539e+04 
       4.725648914510e-02       2.019837170372e+04 
       5.155833063571e-02       1.924160010527e+04 
       5.522614011583e-02       1.852395800026e+04 
       5.855984303972e-02       1.791262631720e+04 
       6.170197153524e-02       1.734549725593e+04 
       6.473165753201e-02       1.678815776700e+04 
       6.769800935598e-02       1.622319581532e+04 
       7.063413781060e-02       1.564065366646e+04 
       7.356387001723e-02       1.503935479626e+04 
       7.650529325792e-02       1.442266417021e+04 
       7.947277168067e-02       1.379747473134e+04 
       8.247816414768e-02       1.317459791712e+04 
       8.553159572539e-02       1.256529068356e+04 
       8.864196593957e-02       1.198165456856e+04 
       9.181729461834e-02       1.143430953863e+04 
       9.506496359454e-02       1.093118260439e+04 
       9.839188936480e-02       1.047697083918e+04 
       1.018046486125e-01       1.007212083166e+04 
       1.053095707072e-01       9.712310697735e+03 
       1.089128065376e-01       9.389170229032e+03 
       1.126203800522e-01       9.090264254585e+03 
       1.164382269730e-01       8.801435860740e+03 
       1.203722238987e-01       8.507997088052e+03 
       1.244282101913e-01       8.197899050733e+03 
       1.286120044922e-01       7.863746660968e+03 
       1.329294173503e-01       7.505132553353e+03 
       1.373862611992e-01       7.128963588989e+03 
       1.419883587667e-01       6.748016189346e+03 
       1.467415508951e-01       6.378248271506e+03 
       1.516517046852e-01       6.035320422811e+03 
       1.567247228395e-01       5.729826917490e+03 
       1.619665550529e-01       5.464825395856e+03 
       1.673832122819e-01       5.234853260564e+03 
       1.729807847167e-01       5.026714166927e+03 
       1.787654642668e-01       4.824715511560e+03 
       1.847435723760e-01       4.614149930516e+03 
       1.909215939826e-01       4.386553304238e+03 
       1.973062184621e-01       4.144574480165e+03 
       2.039043884265e-01       3.901076386234e+03 
       2.107233573227e-01       3.671469400986e+03 
       2.177707568795e-01       3.466450504915e+03 
       2.250546756129e-01       3.288448343197e+03 
       2.325837498365e-01       3.131124978899e+03 
       2.403672689455e-01       2.981966446498e+03 
       2.484152971861e-01       2.829403946870e+03 
       2.567388147193e-01       2.669993862006e+03 
       2.653498815761e-01       2.509217948463e+03 
       2.742618291463e-01       2.357129099947e+03 
       2.834894852283e-01       2.221211231425e+03 
       2.930494404977e-01       2.100246921706e+03 
       3.029603667044e-01       1.986362515444e+03 
       3.132434002049e-01       1.872665752566e+03 
       3.239226089282e-01       1.757958250263e+03 
       3.350255670624e-01       1.647615694190e+03 
       3.465840703987e-01       1.546210958250e+03 
       3.586350375349e-01       1.453283718237e+03 
       3.712216598245e-01       1.364134054455e+03 
       3.843948888953e-01       1.276114696844e+03 
       3.982153893530e-01       1.191127020063e+03 
       4.127561434985e-01       1.111601594940e+03 
       4.281059873986e-01       1.036581523986e+03 
       4.443745058502e-01       9.639825920351e+02 
       4.616989579844e-01       8.935276702063e+02 
       4.802543205125e-01       8.264048459309e+02 
       5.002682671105e-01       7.620549424563e+02 
       5.220442435112e-01       6.992898938744e+02 
       5.459983704711e-01       6.385403009987e+02 
       5.727211027690e-01       5.792194837260e+02 
       6.030856987563e-01       5.207462085357e+02 
       6.384509898203e-01       4.626693603409e+02 
       6.810682814405e-01       4.040896904684e+02 
       7.349648817297e-01       3.439316911321e+02 
       8.080043988686e-01       2.807648886510e+02 
       9.166344385901e-01       2.134661831845e+02 
       1.092033198585e+00       1.449194497960e+02 
       1.359620676943e+00       8.832404566166e+01 
       1.710866651612e+00       5.196491919342e+01 
       2.153844677777e+00       3.022610349260e+01 
       2.711529780493e+00       1.741777661813e+01 
       3.413613745495e+00       9.952637541073e+00 
       4.297485090253e+00       5.644063649923e+00 
       5.410213186926e+00       3.178458340881e+00 
       6.811054864245e+00       1.778766109552e+00 
       8.574610049723e+00       9.897758536894e-01 
       1.079479448782e+01       5.478753323043e-01 
