# Matter power spectrum P(k) at redshift z=1.5
# for k=8.63685e-06 to 10.8844 h/Mpc,
# number of wavenumbers equal to 123
#    1:k (h/Mpc)              2:P (Mpc/h)^3        
       8.636845693387e-06       1.844486788276e+01 
       1.087314452115e-05       2.315602853514e+01 
       1.368847794379e-05       2.907044587725e+01 
       1.723277273222e-05       3.649538881142e+01 
       2.169477550826e-05       4.581653438381e+01 
       2.731210419052e-05       5.751787272686e+01 
       3.438390201501e-05       7.220679925642e+01 
       4.328676800334e-05       9.064516915879e+01 
       5.449481223385e-05       1.137882981591e+02 
       6.860490393214e-05       1.428331149678e+02 
       8.636845693387e-05       1.792775932222e+02 
       1.087314452115e-04       2.249930375032e+02 
       1.368847794379e-04       2.823104530129e+02 
       1.723277273222e-04       3.541204020022e+02 
       2.169477550826e-04       4.439821495742e+02 
       2.731210419052e-04       5.562306656605e+02 
       3.438390201501e-04       6.960578804845e+02 
       4.328676800334e-04       8.695274200077e+02 
       5.449481223385e-04       1.083465978883e+03 
       6.860490393214e-04       1.345176078413e+03 
       8.636845693387e-04       1.661945796652e+03 
       1.087314452115e-03       2.040322190172e+03 
       1.368847794379e-03       2.484892774064e+03 
       1.723277273222e-03       2.996168455673e+03 
       2.169477550826e-03       3.567966002394e+03 
       2.731210419052e-03       4.184884687420e+03 
       3.438390201501e-03       4.820219243066e+03 
       4.328676800334e-03       5.434532274900e+03 
       5.449481223385e-03       5.976300702798e+03 
       6.860490393214e-03       6.384935631411e+03 
       8.636845693387e-03       6.594797238633e+03 
       1.087314452115e-02       6.542431231426e+03 
       1.368847794379e-02       6.174555500114e+03 
       1.723277273213e-02       5.465471497408e+03 
       2.169477509809e-02       4.449979800901e+03 
       2.731185405852e-02       3.270379867480e+03 
       3.435500064576e-02       2.189812975763e+03 
       4.247144673554e-02       1.504270297274e+03 
       4.901304855259e-02       1.251489401938e+03 
       5.382034004396e-02       1.158205180929e+03 
       5.783324454737e-02       1.106633322478e+03 
       6.143941351632e-02       1.064250130807e+03 
       6.481548533127e-02       1.019133495145e+03 
       6.805653709054e-02       9.667493854189e+02 
       7.122026845502e-02       9.061491578451e+02 
       7.434492618251e-02       8.385747548867e+02 
       7.745766058114e-02       7.665567702284e+02 
       8.057884914738e-02       6.933488530575e+02 
       8.372451910167e-02       6.222675257677e+02 
       8.690779231131e-02       5.563669260755e+02 
       9.013979147464e-02       4.980333915479e+02 
       9.343023219849e-02       4.488372442976e+02 
       9.678782313429e-02       4.094491190098e+02 
       1.002205440529e-01       3.797351575967e+02 
       1.037358435769e-01       3.587996073815e+02 
       1.073407824098e-01       3.451579336441e+02 
       1.110421385944e-01       3.367736335063e+02 
       1.148464856912e-01       3.312443124066e+02 
       1.187602512519e-01       3.259160601801e+02 
       1.227897607185e-01       3.183062948635e+02 
       1.269412704238e-01       3.065119274891e+02 
       1.312209924034e-01       2.896902273783e+02 
       1.356351130950e-01       2.682604587470e+02 
       1.401898075738e-01       2.438698446987e+02 
       1.448912506894e-01       2.189202725190e+02 
       1.497456262865e-01       1.959087361787e+02 
       1.547591355692e-01       1.767610898574e+02 
       1.599380055939e-01       1.624356985149e+02 
       1.652884988267e-01       1.528428554131e+02 
       1.708169246729e-01       1.469045268197e+02 
       1.765296538663e-01       1.428651740991e+02 
       1.824331365928e-01       1.387201645387e+02 
       1.885339252158e-01       1.328210461495e+02 
       1.948387024656e-01       1.243884288294e+02 
       2.013543159612e-01       1.141059278493e+02 
       2.080878199451e-01       1.033977397101e+02 
       2.150465251510e-01       9.382971539501e+01 
       2.222380577839e-01       8.638801298325e+01 
       2.296704286986e-01       8.103886766075e+01 
       2.373521140175e-01       7.697941822979e+01 
       2.452921486591e-01       7.325398456517e+01 
       2.535002345686e-01       6.908451462064e+01 
       2.619868658818e-01       6.413556868534e+01 
       2.707634738455e-01       5.885064900613e+01 
       2.798425951045e-01       5.404349747335e+01 
       2.892380680072e-01       5.010775708170e+01 
       2.989652629625e-01       4.694466097104e+01 
       3.090413547035e-01       4.410881187075e+01 
       3.194856467520e-01       4.113889102858e+01 
       3.303199616468e-01       3.805637365666e+01 
       3.415691149452e-01       3.509460814501e+01 
       3.532614971110e-01       3.248466129409e+01 
       3.654297959095e-01       3.023846364378e+01 
       3.781119039485e-01       2.809705901530e+01 
       3.913520732684e-01       2.597592020420e+01 
       4.052024041020e-01       2.394529183759e+01 
       4.197247924653e-01       2.211250296662e+01 
       4.349935182775e-01       2.040227943712e+01 
       4.510987443165e-01       1.878048390608e+01 
       4.681513374377e-01       1.724400149151e+01 
       4.862896544675e-01       1.578860350221e+01 
       5.056893250288e-01       1.443268634515e+01 
       5.265777445282e-01       1.314095382191e+01 
       5.492562271482e-01       1.191270081203e+01 
       5.741351153175e-01       1.074422389011e+01 
       6.017918237028e-01       9.623418696235e+00 
       6.330716817983e-01       8.542497128249e+00 
       6.692736925812e-01       7.491268350306e+00 
       7.125170080663e-01       6.458386366938e+00 
       7.665222913187e-01       5.426284734525e+00 
       8.384092850176e-01       4.377869294555e+00 
       9.429236426408e-01       3.297863154580e+00 
       1.109612028296e+00       2.219175363256e+00 
       1.371787968598e+00       1.317286805882e+00 
       1.725081550960e+00       7.449299524928e-01 
       2.171718934956e+00       4.175256987745e-01 
       2.734032063916e+00       2.326880269679e-01 
       3.441942441887e+00       1.289998736378e-01 
       4.333148806025e+00       7.117371807032e-02 
       5.455111144990e+00       3.909687398584e-02 
       6.867578044590e+00       2.138797250557e-02 
       8.645768517814e+00       1.165570680212e-02 
       1.088437769157e+01       6.329621330119e-03 
