# Matter power spectrum P(k) at redshift z=0.5
# for k=9.81098e-06 to 12.3681 h/Mpc,
# number of wavenumbers equal to 123
#    1:k (h/Mpc)              2:P (Mpc/h)^3        
       9.810977170579e-06       4.264859861700e+01 
       1.235128847457e-05       5.285105942016e+01 
       1.554935092904e-05       6.549401890290e+01 
       1.957547302148e-05       8.116121864312e+01 
       2.464406043463e-05       1.005758553805e+02 
       3.102503393094e-05       1.246338741828e+02 
       3.905820361744e-05       1.544450151727e+02 
       4.917136507303e-05       1.913835861211e+02 
       6.190308102304e-05       2.371505719851e+02 
       7.793136176826e-05       2.938501444831e+02 
       9.810977170579e-05       3.640822800968e+02 
       1.235128847457e-04       4.510543084390e+02 
       1.554935092904e-04       5.587124392047e+02 
       1.957547302148e-04       6.918922203411e+02 
       2.464406043463e-04       8.564817631780e+02 
       3.102503393094e-04       1.059582587367e+03 
       3.905820361744e-04       1.309638888104e+03 
       4.917136507303e-04       1.616489350501e+03 
       6.190308102304e-04       1.991284334904e+03 
       7.793136176826e-04       2.446212251186e+03 
       9.810977170579e-04       2.993955795478e+03 
       1.235128847457e-03       3.646638844845e+03 
       1.554935092904e-03       4.413843633849e+03 
       1.957547302148e-03       5.299674102648e+03 
       2.464406043463e-03       6.299035176097e+03 
       3.102503393094e-03       7.393181701399e+03 
       3.905820361744e-03       8.545478655668e+03 
       4.917136507303e-03       9.697981222311e+03 
       6.190308102304e-03       1.077000908699e+04 
       7.793136176826e-03       1.164961594434e+04 
       9.810977170579e-03       1.224656524808e+04 
       1.235128847457e-02       1.243795716120e+04 
       1.554935092904e-02       1.212598929747e+04 
       1.957547301983e-02       1.125635577056e+04 
       2.464405652996e-02       9.863718270245e+03 
       3.102366777705e-02       8.126163492612e+03 
       3.895798148034e-02       6.389349649250e+03 
       4.735471885879e-02       5.137765404577e+03 
       5.354659710406e-02       4.500571023568e+03 
       5.829697346940e-02       4.111065276148e+03 
       6.237626805622e-02       3.815879698629e+03 
       6.609842734132e-02       3.565230526713e+03 
       6.961493721594e-02       3.338244890449e+03 
       7.301082948901e-02       3.126482661079e+03 
       7.633929706454e-02       2.926000314352e+03 
       7.963642550060e-02       2.736397836526e+03 
       8.292831143954e-02       2.557949154200e+03 
       8.623484707563e-02       2.391814919547e+03 
       8.957188589815e-02       2.239073982881e+03 
       9.295255641435e-02       2.100733117824e+03 
       9.638809741563e-02       1.976824867191e+03 
       9.988840990333e-02       1.866918792456e+03 
       1.034624335813e-01       1.769828175676e+03 
       1.071184105176e-01       1.683728017178e+03 
       1.108640738033e-01       1.606127145991e+03 
       1.147067848861e-01       1.534439495696e+03 
       1.186536348729e-01       1.465984120966e+03 
       1.227115199627e-01       1.398441213494e+03 
       1.268871979517e-01       1.330272931021e+03 
       1.311873306810e-01       1.260705806397e+03 
       1.356185159478e-01       1.190166663056e+03 
       1.401873115060e-01       1.119830890215e+03 
       1.449002531898e-01       1.051422373392e+03 
       1.497638687943e-01       9.868238034729e+02 
       1.547846890908e-01       9.276454343667e+02 
       1.599692571757e-01       8.745952429246e+02 
       1.653241372483e-01       8.274577999406e+02 
       1.708559238375e-01       7.852760111793e+02 
       1.765712524582e-01       7.464032165682e+02 
       1.824768126473e-01       7.092580917727e+02 
       1.885793643146e-01       6.725439292653e+02 
       1.948857583297e-01       6.358005259801e+02 
       2.014029622597e-01       5.994007959360e+02 
       2.081380921712e-01       5.640753516625e+02 
       2.150984514152e-01       5.309217986621e+02 
       2.222915773387e-01       5.008253568298e+02 
       2.297252969104e-01       4.734922294086e+02 
       2.374077923261e-01       4.482759003496e+02 
       2.453476777862e-01       4.244777992026e+02 
       2.535540888262e-01       4.014187732209e+02 
       2.620367858472e-01       3.790656715681e+02 
       2.708062738745e-01       3.578772660582e+02 
       2.798739410768e-01       3.380024712068e+02 
       2.892522192693e-01       3.193614281073e+02 
       2.989547705275e-01       3.020516998452e+02 
       3.089967052469e-01       2.858422799226e+02 
       3.193948385700e-01       2.703577833336e+02 
       3.301679942165e-01       2.556780196211e+02 
       3.413373675709e-01       2.418024611149e+02 
       3.529269636882e-01       2.287082437697e+02 
       3.649641310582e-01       2.164322741838e+02 
       3.774802191193e-01       2.047869166729e+02 
       3.905113975220e-01       1.937995289017e+02 
       4.040996893433e-01       1.833297367608e+02 
       4.182942909721e-01       1.734288490573e+02 
       4.331532815166e-01       1.640515132309e+02 
       4.487458697274e-01       1.551450370765e+02 
       4.651553954760e-01       1.466285023223e+02 
       4.824834109062e-01       1.385458684208e+02 
       5.008553399225e-01       1.307994173754e+02 
       5.204285013802e-01       1.233775515331e+02 
       5.414037702353e-01       1.162536302199e+02 
       5.640430149136e-01       1.093676091838e+02 
       5.886960389249e-01       1.026876671393e+02 
       6.158438170751e-01       9.616738443131e+01 
       6.461710309213e-01       8.975190122654e+01 
       6.806942859104e-01       8.337174352074e+01 
       7.210031535738e-01       7.693208291782e+01 
       7.697470253297e-01       7.031609440005e+01 
       8.316994539937e-01       6.333409701589e+01 
       9.162506999938e-01       5.571279323731e+01 
       1.043081119169e+00       4.709266064010e+01 
       1.248433265782e+00       3.748355775244e+01 
       1.557565638280e+00       2.838193159135e+01 
       1.960213007148e+00       2.118483236640e+01 
       2.467755700027e+00       1.564422415515e+01 
       3.106720350358e+00       1.136601167597e+01 
       3.911129196401e+00       8.086132209195e+00 
       4.923819934160e+00       5.614214962625e+00 
       6.198722038212e+00       3.796279932663e+00 
       7.803728694554e+00       2.498408922024e+00 
       9.824312360321e+00       1.602053682450e+00 
       1.236807648381e+01       1.003711169242e+00 
