# Matter power spectrum P(k) at redshift z=2
# for k=1.14708e-05 to 11.4824 h/Mpc,
# number of wavenumbers equal to 122
#    1:k (h/Mpc)              2:P (Mpc/h)^3        
       1.147077588384e-05       6.549851405442e+00 
       1.444085125316e-05       8.131318065136e+00 
       1.817995461054e-05       1.009462433968e+01 
       2.288720684448e-05       1.253195712210e+01 
       2.881328630150e-05       1.555775418107e+01 
       3.627377832226e-05       1.931406739871e+01 
       4.566598131168e-05       2.397721449439e+01 
       5.749006432779e-05       2.976602085640e+01 
       7.237570290794e-05       3.695202078104e+01 
       9.111561158727e-05       4.587206052442e+01 
       1.147077588384e-04       5.694382989747e+01 
       1.444085125316e-04       7.068490741486e+01 
       1.817995461054e-04       8.773596388270e+01 
       2.288720684448e-04       1.088886979423e+02 
       2.881328630150e-04       1.351188671811e+02 
       3.627377832226e-04       1.676241905250e+02 
       4.566598131168e-04       2.078657321946e+02 
       5.749006432779e-04       2.576093520885e+02 
       7.237570290794e-04       3.189609292398e+02 
       9.111561158727e-04       3.943861188971e+02 
       1.147077588384e-03       4.867039772012e+02 
       1.444085125316e-03       5.990420002010e+02 
       1.817995461054e-03       7.347159165825e+02 
       2.288720684448e-03       8.969676674150e+02 
       2.881328630150e-03       1.088496697850e+03 
       3.627377832226e-03       1.310737932083e+03 
       4.566598131168e-03       1.562906856932e+03 
       5.749006432779e-03       1.840691213004e+03 
       7.237570290794e-03       2.134645557185e+03 
       9.111561158727e-03       2.428510007696e+03 
       1.147077588384e-02       2.697134756461e+03 
       1.444085125316e-02       2.906032352216e+03 
       1.817995461048e-02       3.012389679711e+03 
       2.288720654171e-02       2.973157096624e+03 
       2.881308388996e-02       2.765105115486e+03 
       3.624857221951e-02       2.417595956819e+03 
       4.490397928039e-02       2.051506507284e+03 
       5.201054921294e-02       1.828972150375e+03 
       5.720196777919e-02       1.706780387140e+03 
       6.151364558328e-02       1.622906888603e+03 
       6.537790388845e-02       1.555454624680e+03 
       6.898990180322e-02       1.495059454427e+03 
       7.245394226418e-02       1.437005462143e+03 
       7.583300223494e-02       1.378812937038e+03 
       7.916866615402e-02       1.319306859538e+03 
       8.249036331715e-02       1.258245051454e+03 
       8.582012570626e-02       1.195963769594e+03 
       8.917524446158e-02       1.133303007469e+03 
       9.256984992433e-02       1.071386694897e+03 
       9.601590032527e-02       1.011476952498e+03 
       9.952382657126e-02       9.548109233089e+02 
       1.031029673353e-01       9.024702955832e+02 
       1.067618710400e-01       8.552356192618e+02 
       1.105085103696e-01       8.134937293763e+02 
       1.143504375246e-01       7.772000361929e+02 
       1.182948982481e-01       7.458282269424e+02 
       1.223489164773e-01       7.184245241867e+02 
       1.265193576423e-01       6.936796941395e+02 
       1.308129761826e-01       6.700826336726e+02 
       1.352364512656e-01       6.461145288905e+02 
       1.397964136412e-01       6.205214814861e+02 
       1.444994658768e-01       5.925492850158e+02 
       1.493521977474e-01       5.621616960395e+02 
       1.543611982545e-01       5.300443415998e+02 
       1.595330655392e-01       4.974917378598e+02 
       1.648744158278e-01       4.660895357443e+02 
       1.703918924641e-01       4.373292075397e+02 
       1.760921760285e-01       4.122250675387e+02 
       1.819819965140e-01       3.910671931007e+02 
       1.880681485069e-01       3.732920430230e+02 
       1.943575103068e-01       3.576540138566e+02 
       2.008570679103e-01       3.425922384244e+02 
       2.075739447809e-01       3.267967299385e+02 
       2.145154383286e-01       3.094078607569e+02 
       2.216890640398e-01       2.906295354352e+02 
       2.291026082356e-01       2.715823300393e+02 
       2.367641905000e-01       2.537310962019e+02 
       2.446823369293e-01       2.380522291693e+02 
       2.528660655178e-01       2.247480783433e+02 
       2.613249852355e-01       2.132726323690e+02 
       2.700694106891e-01       2.025825848451e+02 
       2.791104947212e-01       1.916286973323e+02 
       2.884603819237e-01       1.800401118309e+02 
       2.981323868696e-01       1.682745333523e+02 
       3.081412019676e-01       1.571549193992e+02 
       3.185031412885e-01       1.473294564018e+02 
       3.292364286400e-01       1.387672390178e+02 
       3.403615407243e-01       1.308128275734e+02 
       3.519016196523e-01       1.228890900226e+02 
       3.638829737602e-01       1.148736712608e+02 
       3.763356920822e-01       1.071410281109e+02 
       3.892944067614e-01       1.000972078452e+02 
       4.027992502808e-01       9.371377698561e+01 
       4.168970724840e-01       8.765639107897e+01 
       4.316430087511e-01       8.168092650458e+01 
       4.471025299505e-01       7.592911944009e+01 
       4.633541643680e-01       7.057074992758e+01 
       4.804931742667e-01       6.555934474603e+01 
       4.986366167841e-01       6.074758072375e+01 
       5.179304592174e-01       5.609521253350e+01 
       5.385598237458e-01       5.168396721807e+01 
       5.607641427952e-01       4.749396601782e+01 
       5.848602859736e-01       4.343266747167e+01 
       6.112791423001e-01       3.952453990943e+01 
       6.406259622043e-01       3.574375597082e+01 
       6.737849132391e-01       3.204515479329e+01 
       7.121110738044e-01       2.840997562913e+01 
       7.578078280623e-01       2.478539893322e+01 
       8.147283054137e-01       2.111578902732e+01 
       8.902130912340e-01       1.732387322606e+01 
       9.994220001695e-01       1.333671955947e+01 
       1.172992854236e+00       9.237502481725e+00 
       1.447479818078e+00       5.653973713738e+00 
       1.819877689162e+00       3.279367122773e+00 
       2.291049350568e+00       1.877961561198e+00 
       2.884260112237e+00       1.066028847678e+00 
       3.631068349459e+00       6.003727710152e-01 
       4.571244217095e+00       3.357103119037e-01 
       5.754855508418e+00       1.865004548574e-01 
       7.244933840751e+00       1.029960077441e-01 
       9.120831318889e+00       5.657148699740e-02 
       1.148244632404e+01       3.091853111644e-02 
