# Matter power spectrum P(k) at redshift z=1
# for k=1.13553e-05 to 11.367 h/Mpc,
# number of wavenumbers equal to 122
#    1:k (h/Mpc)              2:P (Mpc/h)^3        
       1.135527312376e-05       1.803650737782e+01 
       1.429544189337e-05       2.243787727415e+01 
       1.799689507239e-05       2.791327197169e+01 
       2.265674854002e-05       3.472474654054e+01 
       2.852315648566e-05       4.319827893395e+01 
       3.590852652438e-05       5.373933666452e+01 
       4.520615654163e-05       6.685220266105e+01 
       5.691117923981e-05       8.316398817394e+01 
       7.164692976016e-05       1.034543617566e+02 
       9.019814055210e-05       1.286923323728e+02 
       1.135527312376e-04       1.600815576670e+02 
       1.429544189337e-04       1.991158640675e+02 
       1.799689507239e-04       2.476466561207e+02 
       2.265674854002e-04       3.079636037530e+02 
       2.852315648566e-04       3.828890097897e+02 
       3.590852652438e-04       4.758841160862e+02 
       4.520615654163e-04       5.911616340092e+02 
       5.691117923981e-04       7.337927039984e+02 
       7.164692976016e-04       9.097893055797e+02 
       9.019814055210e-04       1.126137694171e+03 
       1.135527312376e-03       1.390753031757e+03 
       1.429544189337e-03       1.712293475480e+03 
       1.799689507239e-03       2.099676922421e+03 
       2.265674854002e-03       2.561108755963e+03 
       2.852315648566e-03       3.102597532455e+03 
       3.590852652438e-03       3.725824410858e+03 
       4.520615654163e-03       4.425363898871e+03 
       5.691117923981e-03       5.185313887334e+03 
       7.164692976016e-03       5.960586153288e+03 
       9.019814055210e-03       6.727711095789e+03 
       1.135527312376e-02       7.410275291788e+03 
       1.429544189337e-02       7.923646048474e+03 
       1.799689507236e-02       8.172593507330e+03 
       2.265674837380e-02       8.070512916196e+03 
       2.852302724659e-02       7.578884038481e+03 
       3.589032783041e-02       6.761129277434e+03 
       4.459109068254e-02       5.849858183223e+03 
       5.196516456974e-02       5.224240806195e+03 
       5.730631766181e-02       4.847188032484e+03 
       6.170466195610e-02       4.569912119349e+03 
       6.562882920645e-02       4.338937523635e+03 
       6.928719251993e-02       4.132519346114e+03 
       7.278981735840e-02       3.940333084001e+03 
       7.620260393195e-02       3.757319913596e+03 
       7.956879239577e-02       3.581449900505e+03 
       8.291883048203e-02       3.411899151816e+03 
       8.627541820327e-02       3.248994365546e+03 
       8.965630830550e-02       3.093510781970e+03 
       9.307596434921e-02       2.946427391595e+03 
       9.654659439672e-02       2.808632367626e+03 
       1.000788231011e-01       2.680558985493e+03 
       1.036821440822e-01       2.562435232140e+03 
       1.073652332586e-01       2.453753588133e+03 
       1.111361710426e-01       2.353644360208e+03 
       1.150026029406e-01       2.260623982959e+03 
       1.189718573813e-01       2.172926695141e+03 
       1.230510331281e-01       2.088638670646e+03 
       1.272470646116e-01       2.006056352149e+03 
       1.315667709630e-01       1.923722528685e+03 
       1.360168928707e-01       1.840942234462e+03 
       1.406041202910e-01       1.757679714803e+03 
       1.453351133191e-01       1.674654499212e+03 
       1.502165180456e-01       1.593199011611e+03 
       1.552549788998e-01       1.514870296533e+03 
       1.604571487744e-01       1.441072599207e+03 
       1.658296980853e-01       1.372731664769e+03 
       1.713793238349e-01       1.310014271331e+03 
       1.771127596925e-01       1.252249426056e+03 
       1.830367880707e-01       1.198209216064e+03 
       1.891582551557e-01       1.146427602619e+03 
       1.954840898349e-01       1.095665696095e+03 
       2.020213274547e-01       1.045255665358e+03 
       2.087771393382e-01       9.953848664470e+02 
       2.157588689942e-01       9.466507886444e+02 
       2.229740759645e-01       9.003256363312e+02 
       2.304305882904e-01       8.571525598399e+02 
       2.381365646431e-01       8.171998735250e+02 
       2.461005672690e-01       7.800036299590e+02 
       2.543316470590e-01       7.446537195324e+02 
       2.628394422877e-01       7.104150815931e+02 
       2.716342929001e-01       6.771838155278e+02 
       2.807273726758e-01       6.453307249953e+02 
       2.901308422146e-01       6.150354302110e+02 
       2.998580265058e-01       5.864399226841e+02 
       3.099236219223e-01       5.596451676969e+02 
       3.203439389125e-01       5.342655417323e+02 
       3.311371885581e-01       5.099784558167e+02 
       3.423238236859e-01       4.867452135830e+02 
       3.539269486111e-01       4.645353587686e+02 
       3.659728161809e-01       4.434938641310e+02 
       3.784914370858e-01       4.235591052817e+02 
       3.915173351682e-01       4.045425629818e+02 
       4.050904948090e-01       3.864091776165e+02 
       4.192575641826e-01       3.690242349340e+02 
       4.340734039692e-01       3.524527543278e+02 
       4.496031094375e-01       3.366073227971e+02 
       4.659246918576e-01       3.214279964088e+02 
       4.831326951266e-01       3.068107979008e+02 
       5.013431662091e-01       2.927670138804e+02 
       5.207006307312e-01       2.792095466261e+02 
       5.413881162216e-01       2.660654779657e+02 
       5.636419455467e-01       2.532886250364e+02 
       5.877742514568e-01       2.407967405366e+02 
       6.142084800805e-01       2.285047431119e+02 
       6.435377417776e-01       2.163073713427e+02 
       6.766254862647e-01       2.040768010506e+02 
       7.147894427111e-01       1.916415969981e+02 
       7.601610727149e-01       1.787597041218e+02 
       8.164440084921e-01       1.650557967451e+02 
       8.906436116882e-01       1.499370911725e+02 
       9.971549790792e-01       1.324699661029e+02 
       1.165409211579e+00       1.116020983582e+02 
       1.433546443935e+00       8.835659094738e+01 
       1.801596371046e+00       6.723212116535e+01 
       2.268014827965e+00       4.983821639974e+01 
       2.855261270567e+00       3.584313644287e+01 
       3.594560970704e+00       2.491833904708e+01 
       4.525284150263e+00       1.673747839771e+01 
       5.696995212356e+00       1.089337330634e+01 
       7.172092043704e+00       6.902457661225e+00 
       9.029128929546e+00       4.279721888604e+00 
       1.136699985577e+01       2.608646555257e+00 
