# Matter power spectrum P(k) at redshift z=1.5
# for k=8.07007e-06 to 10.1713 h/Mpc,
# number of wavenumbers equal to 123
#    1:k (h/Mpc)              2:P (Mpc/h)^3        
       8.070071608455e-06       3.069715321205e+01 
       1.015961822288e-05       3.841551017613e+01 
       1.279020155491e-05       4.807444338223e+01 
       1.610190975945e-05       6.016175373318e+01 
       2.027110337459e-05       7.528777661690e+01 
       2.551980716338e-05       9.421607415747e+01 
       3.212753374206e-05       1.179016731705e+02 
       4.044616864616e-05       1.475387773473e+02 
       5.091870951836e-05       1.846198445884e+02 
       6.410285734843e-05       2.310088391072e+02 
       8.070071608455e-05       2.890307008060e+02 
       1.015961822288e-04       3.615799327017e+02 
       1.279020155491e-04       4.522493169140e+02 
       1.610190975945e-04       5.654773426401e+02 
       2.027110337459e-04       7.067069323507e+02 
       2.551980716338e-04       8.825366537255e+02 
       3.212753374206e-04       1.100826692787e+03 
       4.044616864616e-04       1.370696068187e+03 
       5.091870951836e-04       1.702324637883e+03 
       6.410285734843e-04       2.106480344831e+03 
       8.070071608455e-04       2.593741333713e+03 
       1.015961822288e-03       3.173354915489e+03 
       1.279020155491e-03       3.851327045565e+03 
       1.610190975945e-03       4.627178957370e+03 
       2.027110337459e-03       5.490105559317e+03 
       2.551980716338e-03       6.415324182147e+03 
       3.212753374206e-03       7.361103332617e+03 
       4.044616864616e-03       8.267117282066e+03 
       5.091870951836e-03       9.056317291392e+03 
       6.410285734843e-03       9.639050568864e+03 
       8.070071608455e-03       9.922117377109e+03 
       1.015961822288e-02       9.818176207046e+03 
       1.279020155491e-02       9.259509953420e+03 
       1.610190975917e-02       8.222332638725e+03 
       2.027110239176e-02       6.770257235811e+03 
       2.551933773394e-02       5.110154871353e+03 
       3.208309079099e-02       3.600270867293e+03 
       3.940834237085e-02       2.638728345425e+03 
       4.505313992887e-02       2.249291488739e+03 
       4.927632624487e-02       2.064646470719e+03 
       5.284755196889e-02       1.939611278977e+03 
       5.607907967502e-02       1.832115695498e+03 
       5.911681783615e-02       1.726793626110e+03 
       6.204078235281e-02       1.618032694517e+03 
       6.490018977376e-02       1.504899066388e+03 
       6.772799863501e-02       1.388987522918e+03 
       7.054779706387e-02       1.273262710409e+03 
       7.337740943952e-02       1.161229581097e+03 
       7.623093612306e-02       1.056275368839e+03 
       7.911997911300e-02       9.613324830461e+02 
       8.205441535555e-02       8.784462932899e+02 
       8.504290451113e-02       8.086508639502e+02 
       8.809323351783e-02       7.519822349204e+02 
       9.121255685556e-02       7.075066631671e+02 
       9.440756786214e-02       6.734298054536e+02 
       9.768462309906e-02       6.471920371627e+02 
       1.010498338982e-01       6.258209599894e+02 
       1.045091344342e-01       6.060364051033e+02 
       1.080683326744e-01       5.848035305747e+02 
       1.117331486410e-01       5.597655206098e+02 
       1.155092431744e-01       5.296956096396e+02 
       1.194022395632e-01       4.947953693511e+02 
       1.234177398557e-01       4.565981360938e+02 
       1.275613373089e-01       4.176326239187e+02 
       1.318386261831e-01       3.807102470153e+02 
       1.362552099352e-01       3.482692459609e+02 
       1.408167087610e-01       3.216961049103e+02 
       1.455287673698e-01       3.011901853427e+02 
       1.503970638360e-01       2.857070508954e+02 
       1.554273203465e-01       2.733187677084e+02 
       1.606253166467e-01       2.617652839713e+02 
       1.659969069751e-01       2.490228021464e+02 
       1.715480412728e-01       2.341347622070e+02 
       1.772847914480e-01       2.171584669691e+02 
       1.832133834839e-01       1.996859610055e+02 
       1.893402361906e-01       1.834537326853e+02 
       1.956720074402e-01       1.696127651020e+02 
       2.022156487830e-01       1.584404530431e+02 
       2.089784694449e-01       1.492335068877e+02 
       2.159682108526e-01       1.407445809368e+02 
       2.231931330555e-01       1.321507548516e+02 
       2.306621147119e-01       1.232526241766e+02 
       2.383847687260e-01       1.141967972146e+02 
       2.463715761770e-01       1.055519684630e+02 
       2.546340419233e-01       9.797280930674e+01 
       2.631848762459e-01       9.142330615298e+01 
       2.720382081917e-01       8.545349327737e+01 
       2.812098379955e-01       7.972187482550e+01 
       2.907175382553e-01       7.401740659389e+01 
       3.005814166231e-01       6.856019124420e+01 
       3.108243569688e-01       6.356594293466e+01 
       3.214725617607e-01       5.901833398419e+01 
       3.325562264660e-01       5.484594265130e+01 
       3.441103882030e-01       5.080183310152e+01 
       3.561760073145e-01       4.696216134450e+01 
       3.688013646154e-01       4.338764201386e+01 
       3.820438930030e-01       4.009683144326e+01 
       3.959726168791e-01       3.695414655151e+01 
       4.106714581864e-01       3.400332681729e+01 
       4.262438042616e-01       3.122747896511e+01 
       4.428189568652e-01       2.859966845837e+01 
       4.605614617297e-01       2.612922691521e+01 
       4.796849850290e-01       2.378103451307e+01 
       5.004736213401e-01       2.155155720040e+01 
       5.233158441252e-01       1.942190670925e+01 
       5.487609849235e-01       1.738109228558e+01 
       5.776180814799e-01       1.541008287993e+01 
       6.111395467914e-01       1.348838892744e+01 
       6.513871773455e-01       1.159688721317e+01 
       7.020210186724e-01       9.701468740062e+00 
       7.701294325776e-01       7.770907105001e+00 
       8.704895663648e-01       5.781526215866e+00 
       1.031853396817e+00       3.819779035413e+00 
       1.281357868797e+00       2.239735455202e+00 
       1.612060959642e+00       1.263251654757e+00 
       2.029450717584e+00       7.067739047290e-01 
       2.554927047954e+00       3.931304030483e-01 
       3.216462585939e+00       2.175108101586e-01 
       4.049286485524e+00       1.197555136849e-01 
       5.097749656261e+00       6.563908573218e-02 
       6.417686585232e+00       3.582634958879e-02 
       8.079388727079e+00       1.947941930371e-02 
       1.017134778028e+01       1.055281266466e-02 
