# Matter power spectrum P(k) at redshift z=0.5
# for k=1.02759e-05 to 10.2874 h/Mpc,
# number of wavenumbers equal to 122
#    1:k (h/Mpc)              2:P (Mpc/h)^3        
       1.027593079939e-05       3.754262744025e+01 
       1.293663041319e-05       4.671690592060e+01 
       1.628625277016e-05       5.813300982793e+01 
       2.050317747525e-05       7.233873186669e+01 
       2.581197114612e-05       9.001563442096e+01 
       3.249534640435e-05       1.120116541593e+02 
       4.090921735349e-05       1.393816943784e+02 
       5.150165330292e-05       1.734378643569e+02 
       6.483674009246e-05       2.158118041336e+02 
       8.162461972030e-05       2.685316972777e+02 
       1.027593079939e-04       3.341170682769e+02 
       1.293663041319e-04       4.156947325657e+02 
       1.628625277016e-04       5.171392173229e+02 
       2.050317747525e-04       6.432400867415e+02 
       2.581197114612e-04       7.998963041832e+02 
       3.249534640435e-04       9.943329383511e+02 
       4.090921735349e-04       1.235327193401e+03 
       5.150165330292e-04       1.533419257983e+03 
       6.483674009246e-04       1.901071641249e+03 
       8.162461972030e-04       2.352731066469e+03 
       1.027593079939e-03       2.904718826478e+03 
       1.293663041319e-03       3.574763310873e+03 
       1.628625277016e-03       4.380777265651e+03 
       2.050317747525e-03       5.338828202286e+03 
       2.581197114612e-03       6.459857025561e+03 
       3.249534640435e-03       7.744918496551e+03 
       4.090921735349e-03       9.179245724650e+03 
       5.150165330292e-03       1.072455182391e+04 
       6.483674009246e-03       1.228196368400e+04 
       8.162461972030e-03       1.378678200639e+04 
       1.027593079939e-02       1.505926469709e+04 
       1.293663041319e-02       1.589244813352e+04 
       1.628625277015e-02       1.604519233671e+04 
       2.050317740505e-02       1.529532185802e+04 
       2.581190489613e-02       1.357212303690e+04 
       3.248442351213e-02       1.114396778880e+04 
       4.048462641838e-02       8.777643208905e+03 
       4.755536309263e-02       7.420920972253e+03 
       5.263591336096e-02       6.794421520217e+03 
       5.677241613797e-02       6.422936940653e+03 
       6.044091555544e-02       6.150800225913e+03 
       6.384912768752e-02       5.916165424978e+03 
       6.710511350360e-02       5.689006257708e+03 
       7.027287383693e-02       5.454366695213e+03 
       7.339406203840e-02       5.204982752842e+03 
       7.649782038735e-02       4.939900514174e+03 
       7.960576078230e-02       4.661714735622e+03 
       8.273470925269e-02       4.376228912737e+03 
       8.589832141790e-02       4.090996641362e+03 
       8.910808484287e-02       3.814316183185e+03 
       9.237396822906e-02       3.554230263337e+03 
       9.570485697852e-02       3.317691413867e+03 
       9.910885408183e-02       3.109929803843e+03 
       1.025934930271e-01       2.933464564474e+03 
       1.061658914207e-01       2.788451780057e+03 
       1.098328635458e-01       2.672349636697e+03 
       1.136010037843e-01       2.580185932029e+03 
       1.174767489312e-01       2.504817537333e+03 
       1.214664249485e-01       2.437650708033e+03 
       1.255762821066e-01       2.369594938187e+03 
       1.298125214044e-01       2.292486848004e+03 
       1.341813144609e-01       2.200895196407e+03 
       1.386888186059e-01       2.092896582819e+03 
       1.433411885863e-01       1.971240402830e+03 
       1.481445861029e-01       1.842667614956e+03 
       1.531051882563e-01       1.715988393991e+03 
       1.582291958989e-01       1.600152278650e+03 
       1.635228428362e-01       1.501880089078e+03 
       1.689924067862e-01       1.423968038720e+03 
       1.746442229861e-01       1.364937236914e+03 
       1.804847013209e-01       1.319008215377e+03 
       1.865203478404e-01       1.278289605657e+03 
       1.927577915242e-01       1.234510876543e+03 
       1.992038171572e-01       1.181349977621e+03 
       2.058654051915e-01       1.118055689334e+03 
       2.127497794985e-01       1.049405979280e+03 
       2.198644639719e-01       9.830104856553e+02 
       2.272173490349e-01       9.251576457488e+02 
       2.348167692473e-01       8.787424544760e+02 
       2.426715934193e-01       8.425986892478e+02 
       2.507913289338e-01       8.117548248270e+02 
       2.591862423888e-01       7.800275531324e+02 
       2.678674992212e-01       7.439428818038e+02 
       2.768473257096e-01       7.043013616008e+02 
       2.861391977279e-01       6.651953585165e+02 
       2.957580619079e-01       6.310059397674e+02 
       3.057205965770e-01       6.028952261349e+02 
       3.160455221034e-01       5.784135825908e+02 
       3.267539733285e-01       5.541900168343e+02 
       3.378699508854e-01       5.283522635889e+02 
       3.494208738556e-01       5.021922175341e+02 
       3.614382640547e-01       4.780728835962e+02 
       3.739586032884e-01       4.569543376930e+02 
       3.870244207196e-01       4.374706617178e+02 
       4.006856904816e-01       4.179710223502e+02 
       4.150016537449e-01       3.984607073547e+02 
       4.300432309613e-01       3.800138632313e+02 
       4.458962696139e-01       3.629495635789e+02 
       4.626659988295e-01       3.465986004443e+02 
       4.804832671330e-01       3.303825286291e+02 
       4.995134829312e-01       3.146775941185e+02 
       5.199697720338e-01       2.997030624420e+02 
       5.421329363669e-01       2.849489116956e+02 
       5.663828066510e-01       2.703749538908e+02 
       5.932495406013e-01       2.560207708807e+02 
       6.235016635389e-01       2.415868189323e+02 
       6.583059253808e-01       2.269490160563e+02 
       6.995374285797e-01       2.117913208549e+02 
       7.504287366523e-01       1.957088049739e+02 
       8.170394814276e-01       1.780220318516e+02 
       9.117354574855e-01       1.576702798064e+02 
       1.060078469525e+00       1.333880682296e+02 
       1.298317733998e+00       1.060084181931e+02 
       1.630514068587e+00       8.082493959263e+01 
       2.052605854528e+00       6.019519995367e+01 
       2.584077262943e+00       4.367055934232e+01 
       3.253160532086e+00       3.074435314837e+01 
       4.095486462489e+00       2.096748063397e+01 
       5.155911981287e+00       1.386730458110e+01 
       6.490908614216e+00       8.923520801254e+00 
       8.171569800070e+00       5.610656592124e+00 
       1.028739687556e+01       3.461624137556e+00 
