# Matter power spectrum P(k) at redshift z=1
# for k=9.22682e-06 to 11.628 h/Mpc,
# number of wavenumbers equal to 123
#    1:k (h/Mpc)              2:P (Mpc/h)^3        
       9.226815390196e-06       2.591660528813e+01 
       1.161587236465e-05       3.216974523625e+01 
       1.462351690002e-05       3.993160925388e+01 
       1.840991703523e-05       4.956617958293e+01 
       2.317671238468e-05       6.152524245822e+01 
       2.917775218291e-05       7.636950489341e+01 
       3.673261368210e-05       9.479482569749e+01 
       4.624362080602e-05       1.176646934741e+02 
       5.821726936607e-05       1.460504049232e+02 
       7.329119981021e-05       1.812806857891e+02 
       9.226815390196e-05       2.250028039694e+02 
       1.161587236465e-04       2.792574562033e+02 
       1.462351690002e-04       3.465698702107e+02 
       1.840991703523e-04       4.300593339990e+02 
       2.317671238468e-04       5.335684463115e+02 
       2.917775218291e-04       6.618112223981e+02 
       3.673261368210e-04       8.205350865325e+02 
       4.624362080602e-04       1.016685496525e+03 
       5.821726936607e-04       1.258554441358e+03 
       7.329119981021e-04       1.555887786886e+03 
       9.226815390196e-04       1.919835701688e+03 
       1.161587236465e-03       2.362917349693e+03 
       1.462351690002e-03       2.898601681801e+03 
       1.840991703523e-03       3.540058536487e+03 
       2.317671238468e-03       4.298419193747e+03 
       2.917775218291e-03       5.179998993391e+03 
       3.673261368210e-03       6.182350152520e+03 
       4.624362080602e-03       7.288471756781e+03 
       5.821726936607e-03       8.459341793248e+03 
       7.329119981021e-03       9.625084727549e+03 
       9.226815390196e-03       1.067361619376e+04 
       1.161587236465e-02       1.144422387527e+04 
       1.462351689993e-02       1.173071474512e+04 
       1.840991664369e-02       1.132434005797e+04 
       2.317648076164e-02       1.012726228918e+04 
       2.915164369338e-02       8.338385117880e+03 
       3.601288526056e-02       6.636909275573e+03 
       4.150997390835e-02       5.732010993759e+03 
       4.555808296599e-02       5.292553381601e+03 
       4.894283569806e-02       5.028376755713e+03 
       5.198719185027e-02       4.839637337103e+03 
       5.483877014235e-02       4.681977582312e+03 
       5.757721350859e-02       4.531755725705e+03 
       6.025093626421e-02       4.375111751651e+03 
       6.289207112286e-02       4.204305729005e+03 
       6.552345133831e-02       4.016084954170e+03 
       6.816222867761e-02       3.810770416021e+03 
       7.082190292446e-02       3.591618905954e+03 
       7.351353349417e-02       3.364138433141e+03 
       7.624649986668e-02       3.135353578569e+03 
       7.902899873902e-02       2.913044494502e+03 
       8.186838017992e-02       2.704626448581e+03 
       8.477138133871e-02       2.516466331036e+03 
       8.774429268662e-02       2.353323369578e+03 
       9.079307846813e-02       2.217652125409e+03 
       9.392346523824e-02       2.109681362446e+03 
       9.714100763106e-02       2.027056391100e+03 
       1.004511375556e-01       1.965008512189e+03 
       1.038592011314e-01       1.916550103136e+03 
       1.073704864544e-01       1.873280811731e+03 
       1.109902444727e-01       1.826252791046e+03 
       1.147237047222e-01       1.767493455706e+03 
       1.185760873073e-01       1.691892995216e+03 
       1.225526122817e-01       1.598181998671e+03 
       1.266585074240e-01       1.489977200912e+03 
       1.308990153036e-01       1.374906627103e+03 
       1.352794004688e-01       1.262768600078e+03 
       1.398049575479e-01       1.163078739799e+03 
       1.444810210297e-01       1.082420846829e+03 
       1.493129774739e-01       1.023257585296e+03 
       1.543062808908e-01       9.833551209199e+02 
       1.594664720229e-01       9.552805934262e+02 
       1.647992022583e-01       9.289471599800e+02 
       1.703102629085e-01       8.950767576949e+02 
       1.760056205974e-01       8.481452959129e+02 
       1.818914595381e-01       7.888824585208e+02 
       1.879742315277e-01       7.239413014754e+02 
       1.942607145794e-01       6.630357131635e+02 
       2.007580812440e-01       6.141203011102e+02 
       2.074739778680e-01       5.797461950859e+02 
       2.144166163086e-01       5.565939577383e+02 
       2.215948799985e-01       5.366789635090e+02 
       2.290184467562e-01       5.116820683958e+02 
       2.366979314071e-01       4.782740820948e+02 
       2.446450521659e-01       4.400024531889e+02 
       2.528728258983e-01       4.041614713224e+02 
       2.613957989379e-01       3.765536849223e+02 
       2.702303221945e-01       3.570369334130e+02 
       2.793948820766e-01       3.404894195354e+02 
       2.889105025232e-01       3.210465691907e+02 
       2.988012386309e-01       2.973754866477e+02 
       3.090947895925e-01       2.735626036843e+02 
       3.198232688856e-01       2.541338271929e+02 
       3.310241843302e-01       2.392357792004e+02 
       3.427417020944e-01       2.250051284395e+02 
       3.550283006742e-01       2.086370388298e+02 
       3.679469694364e-01       1.918170858711e+02 
       3.815741817834e-01       1.776194683229e+02 
       3.960039932492e-01       1.655805722811e+02 
       4.113538117472e-01       1.529128588475e+02 
       4.277727197193e-01       1.398643849691e+02 
       4.454538091325e-01       1.284364271045e+02 
       4.646530464150e-01       1.176780707097e+02 
       4.857191901654e-01       1.065707497484e+02 
       5.091432894881e-01       9.629914353032e+01 
       5.356447566641e-01       8.617684796395e+01 
       5.663300856739e-01       7.619251845185e+01 
       6.030063643245e-01       6.627337106645e+01 
       6.488506020791e-01       5.626364856078e+01 
       7.099512082091e-01       4.590671565249e+01 
       7.989292052587e-01       3.505284900038e+01 
       9.409955476419e-01       2.399322178328e+01 
       1.164017068630e+00       1.453715376045e+01 
       1.463894672871e+00       8.389764565094e+00 
       1.842910784851e+00       4.785865228844e+00 
       2.320087150267e+00       2.707411379175e+00 
       2.920816671021e+00       1.520092543758e+00 
       3.677090330340e+00       8.476355569918e-01 
       4.629182458328e+00       4.697287708172e-01 
       5.827795432621e+00       2.588165189277e-01 
       7.336759764865e+00       1.418595679461e-01 
       9.236433308217e+00       7.738104494755e-02 
       1.162798060606e+01       4.202010048740e-02 
