# Matter power spectrum P(k) at redshift z=2.5
# for k=1.06705e-05 to 10.6817 h/Mpc,
# number of wavenumbers equal to 122
#    1:k (h/Mpc)              2:P (Mpc/h)^3        
       1.067047011462e-05       5.499343898099e+00 
       1.343332598308e-05       6.834714663375e+00 
       1.691155544502e-05       8.494339140225e+00 
       2.129038690270e-05       1.055694766755e+01 
       2.680300909874e-05       1.312037969550e+01 
       3.374298926695e-05       1.630622009177e+01 
       4.247990665806e-05       2.026554898119e+01 
       5.347903398248e-05       2.518607931043e+01 
       6.732611487875e-05       3.130099915638e+01 
       8.475855689823e-05       3.889991091230e+01 
       1.067047011462e-04       4.834233023967e+01 
       1.343332598308e-04       6.007426494327e+01 
       1.691155544502e-04       7.464844669845e+01 
       2.129038690270e-04       9.274874112922e+01 
       2.680300909874e-04       1.152190842484e+02 
       3.374298926695e-04       1.430967974951e+02 
       4.247990665806e-04       1.776491147519e+02 
       5.347903398248e-04       2.204099440668e+02 
       6.732611487875e-04       2.732111890326e+02 
       8.475855689823e-04       3.381999838702e+02 
       1.067047011462e-03       4.178315911217e+02 
       1.343332598308e-03       5.148274853925e+02 
       1.691155544502e-03       6.320691370450e+02 
       2.129038690270e-03       7.723899324602e+02 
       2.680300909874e-03       9.381532773701e+02 
       3.374298926695e-03       1.130618171470e+03 
       4.247990665806e-03       1.349110452594e+03 
       5.347903398248e-03       1.589862055662e+03 
       6.732611487875e-03       1.844599087656e+03 
       8.475855689823e-03       2.099021681126e+03 
       1.067047011462e-02       2.331022068775e+03 
       1.343332598308e-02       2.510133076209e+03 
       1.691155544491e-02       2.598709106393e+03 
       2.129038641371e-02       2.559333236558e+03 
       2.680272551785e-02       2.373215948961e+03 
       3.371153753263e-02       2.069603368552e+03 
       4.162592642473e-02       1.760169692117e+03 
       4.794242643094e-02       1.578324532242e+03 
       5.260041210577e-02       1.477018867186e+03 
       5.649928250695e-02       1.406641256516e+03 
       6.000805738551e-02       1.349581163200e+03 
       6.329575241432e-02       1.298163039200e+03 
       6.645369385313e-02       1.248476098314e+03 
       6.953745916467e-02       1.198454799719e+03 
       7.258396595018e-02       1.147137637918e+03 
       7.561946497491e-02       1.094324054645e+03 
       7.866368600727e-02       1.040360853616e+03 
       8.173216519323e-02       9.859978667674e+02 
       8.483763533869e-02       9.322386203370e+02 
       8.799089890441e-02       8.802029193388e+02 
       9.120139897809e-02       8.309924857643e+02 
       9.447760547101e-02       7.855609724908e+02 
       9.782728369194e-02       7.446015617603e+02 
       1.012576854312e-01       7.084637812139e+02 
       1.047756874365e-01       6.770986744629e+02 
       1.083878932134e-01       6.500462435316e+02 
       1.121007086522e-01       6.264590191302e+02 
       1.159203986023e-01       6.051792096962e+02 
       1.198531293481e-01       5.848626887671e+02 
       1.239050005393e-01       5.641688354665e+02 
       1.280820691994e-01       5.419828578239e+02 
       1.323903678217e-01       5.176489110720e+02 
       1.368359181513e-01       4.911346083434e+02 
       1.414247419806e-01       4.630667320364e+02 
       1.461628701041e-01       4.346037259393e+02 
       1.510563504667e-01       4.071608131262e+02 
       1.561112564618e-01       3.820639969471e+02 
       1.613336962934e-01       3.602186912015e+02 
       1.667298242841e-01       3.418560406095e+02 
       1.723058549962e-01       3.264812269879e+02 
       1.780680810175e-01       3.129699181603e+02 
       1.840228952583e-01       2.999364043096e+02 
       1.901768185993e-01       2.861924988737e+02 
       1.965365337387e-01       2.709831560239e+02 
       2.031089260971e-01       2.545138804305e+02 
       2.099011326786e-01       2.378122853986e+02 
       2.169205998469e-01       2.221827988363e+02 
       2.241751510756e-01       2.084943409077e+02 
       2.316730658923e-01       1.969175011663e+02 
       2.394231714549e-01       1.869692975036e+02 
       2.474349485192e-01       1.776839500136e+02 
       2.557186539872e-01       1.681156211462e+02 
       2.642854628064e-01       1.579527435750e+02 
       2.731476327660e-01       1.476153432263e+02 
       2.823186967590e-01       1.378608278849e+02 
       2.918136884339e-01       1.292800318902e+02 
       3.016494089558e-01       1.218195164756e+02 
       3.118447449876e-01       1.148819525415e+02 
       3.224210512232e-01       1.079452390472e+02 
       3.334026151721e-01       1.009016612079e+02 
       3.448172279035e-01       9.411365563210e+01 
       3.566968928318e-01       8.794307716732e+01 
       3.690787164588e-01       8.236400051431e+01 
       3.820060419963e-01       7.705695013797e+01 
       3.955299116485e-01       7.181044678723e+01 
       4.097109803562e-01       6.675549942332e+01 
       4.246220600838e-01       6.205515251580e+01 
       4.403515612230e-01       5.765949545615e+01 
       4.570082371280e-01       5.343274472259e+01 
       4.747278662134e-01       4.934056877282e+01 
       4.936828918988e-01       4.546307801834e+01 
       5.140967153686e-01       4.177829451981e+01 
       5.362655626856e-01       3.820169197625e+01 
       5.605931783833e-01       3.476017094782e+01 
       5.876482540493e-01       3.142730293650e+01 
       6.182643495945e-01       2.816339927041e+01 
       6.537242763087e-01       2.495271656126e+01 
       6.961245961287e-01       2.174521613917e+01 
       7.491544828013e-01       1.849203192608e+01 
       8.198907079574e-01       1.512287826371e+01 
       9.230115970130e-01       1.157585049478e+01 
       1.087775800723e+00       7.947084757509e+00 
       1.346097048551e+00       4.835318580584e+00 
       1.692950784771e+00       2.804169731535e+00 
       2.131273167880e+00       1.606892541567e+00 
       2.683113877174e+00       9.128139273913e-01 
       3.377840242684e+00       5.144675143000e-01 
       4.252448918496e+00       2.879035068275e-01 
       5.353516005851e+00       1.600723209614e-01 
       6.739677342213e+00       8.847563850859e-02 
       8.484751073405e+00       4.863878268296e-02 
       1.068166873906e+01       2.660631175454e-02 
