# Matter power spectrum P(k) at redshift z=2.5
# for k=9.22682e-06 to 11.628 h/Mpc,
# number of wavenumbers equal to 123
#    1:k (h/Mpc)              2:P (Mpc/h)^3        
       9.226815390196e-06       9.384661258894e+00 
       1.161587236465e-05       1.164898559768e+01 
       1.462351690002e-05       1.445963648068e+01 
       1.840991703523e-05       1.794841782351e+01 
       2.317671238468e-05       2.227892799884e+01 
       2.917775218291e-05       2.765421252086e+01 
       3.673261368210e-05       3.432626505704e+01 
       4.624362080602e-05       4.260779155819e+01 
       5.821726936607e-05       5.288677779522e+01 
       7.329119981021e-05       6.564448167334e+01 
       9.226815390196e-05       8.147761802841e+01 
       1.161587236465e-04       1.011255728282e+02 
       1.462351690002e-04       1.255035870319e+02 
       1.840991703523e-04       1.557427680477e+02 
       2.317671238468e-04       1.932375149982e+02 
       2.917775218291e-04       2.397001696191e+02 
       3.673261368210e-04       2.972211257536e+02 
       4.624362080602e-04       3.683298636280e+02 
       5.821726936607e-04       4.560483690368e+02 
       7.329119981021e-04       5.639242050573e+02 
       9.226815390196e-04       6.959989522624e+02 
       1.161587236465e-03       8.567862665591e+02 
       1.462351690002e-03       1.051145334622e+03 
       1.840991703523e-03       1.283862012954e+03 
       2.317671238468e-03       1.558977285556e+03 
       2.917775218291e-03       1.878779011393e+03 
       3.673261368210e-03       2.242380509148e+03 
       4.624362080602e-03       2.642852088974e+03 
       5.821726936607e-03       3.067248729160e+03 
       7.329119981021e-03       3.489738077152e+03 
       9.226815390196e-03       3.869486153178e+03 
       1.161587236465e-02       4.148409398988e+03 
       1.462351689993e-02       4.251878304398e+03 
       1.840991664369e-02       4.104380258062e+03 
       2.317648076164e-02       3.670643820958e+03 
       2.915164369338e-02       3.022789310031e+03 
       3.601288526056e-02       2.407086831894e+03 
       4.150997390835e-02       2.080023894556e+03 
       4.555808296599e-02       1.921458983563e+03 
       4.894283569806e-02       1.826390346364e+03 
       5.198719185027e-02       1.758599597061e+03 
       5.483877014235e-02       1.702060716361e+03 
       5.757721350859e-02       1.648177543031e+03 
       6.025093626421e-02       1.591942086137e+03 
       6.289207112286e-02       1.530542225411e+03 
       6.552345133831e-02       1.462778106415e+03 
       6.816222867761e-02       1.388757601336e+03 
       7.082190292446e-02       1.309656749248e+03 
       7.351353349417e-02       1.227492062800e+03 
       7.624649986668e-02       1.144827169671e+03 
       7.902899873902e-02       1.064469406906e+03 
       8.186838017992e-02       9.891334039292e+02 
       8.477138133871e-02       9.211481687764e+02 
       8.774429268662e-02       8.622320203812e+02 
       9.079307846813e-02       8.133146497089e+02 
       9.392346523824e-02       7.744590871397e+02 
       9.714100763106e-02       7.448192931765e+02 
       1.004511375556e-01       7.226674687771e+02 
       1.038592011314e-01       7.054842411017e+02 
       1.073704864544e-01       6.901911567939e+02 
       1.109902444727e-01       6.735198694520e+02 
       1.147237047222e-01       6.525630932749e+02 
       1.185760873073e-01       6.253914232777e+02 
       1.225526122817e-01       5.915772204156e+02 
       1.266585074240e-01       5.524086326957e+02 
       1.308990153036e-01       5.106867279068e+02 
       1.352794004688e-01       4.700059048117e+02 
       1.398049575479e-01       4.338417359863e+02 
       1.444810210297e-01       4.046338273910e+02 
       1.493129774739e-01       3.832905926055e+02 
       1.543062808908e-01       3.689845386271e+02 
       1.594664720229e-01       3.590067812690e+02 
       1.647992022583e-01       3.496731531756e+02 
       1.703102629085e-01       3.375379846145e+02 
       1.760056205974e-01       3.205808744599e+02 
       1.818914595381e-01       2.990348161910e+02 
       1.879742315277e-01       2.753505598368e+02 
       1.942607145794e-01       2.531337237672e+02 
       2.007580812440e-01       2.353078562913e+02 
       2.074739778680e-01       2.228360366252e+02 
       2.144166163086e-01       2.144832433778e+02 
       2.215948799985e-01       2.073212200749e+02 
       2.290184467562e-01       1.982557518713e+02 
       2.366979314071e-01       1.860539163251e+02 
       2.446450521659e-01       1.720113249169e+02 
       2.528728258983e-01       1.588497389462e+02 
       2.613957989379e-01       1.487212842336e+02 
       2.702303221945e-01       1.415850908160e+02 
       2.793948820766e-01       1.355394702900e+02 
       2.889105025232e-01       1.283943254362e+02 
       2.988012386309e-01       1.196547210490e+02 
       3.090947895925e-01       1.108394553975e+02 
       3.198232688856e-01       1.036442558874e+02 
       3.310241843302e-01       9.812735327869e+01 
       3.427417020944e-01       9.284175128757e+01 
       3.550283006742e-01       8.674045802558e+01 
       3.679469694364e-01       8.045384384749e+01 
       3.815741817834e-01       7.513276018266e+01 
       3.960039932492e-01       7.060754203574e+01 
       4.113538117472e-01       6.583045025881e+01 
       4.277727197193e-01       6.089347893847e+01 
       4.454538091325e-01       5.655089087258e+01 
       4.646530464150e-01       5.244149175705e+01 
       4.857191901654e-01       4.818235519261e+01 
       5.091432894881e-01       4.421814812585e+01 
       5.356447566641e-01       4.028667389392e+01 
       5.663300856739e-01       3.637860338483e+01 
       6.030063643245e-01       3.245905558693e+01 
       6.488506020791e-01       2.845483249449e+01 
       7.099512082091e-01       2.424436400757e+01 
       7.989292052587e-01       1.972475850632e+01 
       9.409955476419e-01       1.493715125017e+01 
       1.164017068630e+00       1.056641319226e+01 
       1.463894672871e+00       7.419658070504e+00 
       1.842910784851e+00       5.298167357652e+00 
       2.320087150267e+00       3.836267601126e+00 
       2.920816671021e+00       2.799233166497e+00 
       3.677090330340e+00       2.043733571631e+00 
       4.629182458328e+00       1.482167854371e+00 
       5.827795432621e+00       1.060444091984e+00 
       7.336759764865e+00       7.441692495372e-01 
       9.236433308217e+00       5.100286765014e-01 
       1.162798060606e+01       3.405688887461e-01 
