# Matter power spectrum P(k) at redshift z=1.5
# for k=1.15145e-05 to 11.5308 h/Mpc,
# number of wavenumbers equal to 122
#    1:k (h/Mpc)              2:P (Mpc/h)^3        
       1.151451021032e-05       8.760938279858e+00 
       1.449590950813e-05       1.090938519401e+01 
       1.824926884686e-05       1.358469050663e+01 
       2.297446829797e-05       1.691604929947e+01 
       2.892314196278e-05       2.106432853928e+01 
       3.641207840587e-05       2.622983213050e+01 
       4.584009080139e-05       3.266195529247e+01 
       5.770925518883e-05       4.067119203925e+01 
       7.265164785293e-05       5.064406227242e+01 
       9.146300569077e-05       6.306164242511e+01 
       1.151451021032e-04       7.852253126351e+01 
       1.449590950813e-04       9.777122928880e+01 
       1.824926884686e-04       1.217330646697e+02 
       2.297446829797e-04       1.515568686874e+02 
       2.892314196278e-04       1.886665665404e+02 
       3.641207840587e-04       2.348225021743e+02 
       4.584009080139e-04       2.921924631981e+02 
       5.770925518883e-04       3.634307685677e+02 
       7.265164785293e-04       4.517613669219e+02 
       9.146300569077e-04       5.610581081434e+02 
       1.151451021032e-03       6.959124730091e+02 
       1.449590950813e-03       8.616714954704e+02 
       1.824926884686e-03       1.064352186454e+03 
       2.297446829797e-03       1.310545165420e+03 
       2.892314196278e-03       1.606892814075e+03 
       3.641207840587e-03       1.959331040926e+03 
       4.584009080139e-03       2.366662398063e+03 
       5.770925518883e-03       2.836738323485e+03 
       7.265164785293e-03       3.359317888961e+03 
       9.146300569077e-03       3.917299921521e+03 
       1.151451021032e-02       4.478774460805e+03 
       1.449590950813e-02       4.993190114865e+03 
       1.824926884363e-02       5.390496713763e+03 
       2.297446192307e-02       5.590400411088e+03 
       2.892122022052e-02       5.532296045148e+03 
       3.628741694580e-02       5.231485175926e+03 
       4.384903023120e-02       4.868482715964e+03 
       4.934480290908e-02       4.628352334913e+03 
       5.361308288944e-02       4.460029232425e+03 
       5.730383598211e-02       4.323394989046e+03 
       6.068428712585e-02       4.201470019453e+03 
       6.388535880393e-02       4.085760769519e+03 
       6.698134709487e-02       3.971582776674e+03 
       7.001910120953e-02       3.856314587782e+03 
       7.303059947687e-02       3.738720676431e+03 
       7.603908376668e-02       3.618556999999e+03 
       7.906234433532e-02       3.496386246018e+03 
       8.211461025078e-02       3.373313008355e+03 
       8.520770128664e-02       3.250903510886e+03 
       8.835176299045e-02       3.130882075106e+03 
       9.155575387230e-02       3.015138124639e+03 
       9.482777856966e-02       2.905211601063e+03 
       9.817532164711e-02       2.802354717625e+03 
       1.016054151669e-01       2.707192100989e+03 
       1.051247608316e-01       2.619721778757e+03 
       1.087398201684e-01       2.539165813443e+03 
       1.124568817273e-01       2.464183829998e+03 
       1.162821114358e-01       2.392693985958e+03 
       1.202215904312e-01       2.322568152693e+03 
       1.242813435027e-01       2.251459252022e+03 
       1.284673604856e-01       2.177649150396e+03 
       1.327856124277e-01       2.100235033222e+03 
       1.372420639976e-01       2.019418882972e+03 
       1.418426833743e-01       1.936537636700e+03 
       1.465934507062e-01       1.853838267943e+03 
       1.515003661309e-01       1.773916634545e+03 
       1.565694582851e-01       1.699242868648e+03 
       1.618067941972e-01       1.631294535123e+03 
       1.672184914300e-01       1.570293411493e+03 
       1.728107333251e-01       1.514963595272e+03 
       1.785897881927e-01       1.462976171197e+03 
       1.845620332793e-01       1.411628624795e+03 
       1.907339843506e-01       1.358848647153e+03 
       1.971123317286e-01       1.303558711038e+03 
       2.037039836491e-01       1.246648561552e+03 
       2.105161178455e-01       1.190485003848e+03 
       2.175562423415e-01       1.137721463487e+03 
       2.248322665554e-01       1.089827743864e+03 
       2.323525839942e-01       1.046675614674e+03 
       2.401261680699e-01       1.006871031875e+03 
       2.481626829257e-01       9.682134503854e+02 
       2.564726116347e-01       9.289806683409e+02 
       2.650674047778e-01       8.890389812025e+02 
       2.739596532597e-01       8.496802036334e+02 
       2.831632903453e-01       8.125517992439e+02 
       2.926938293910e-01       7.786025787966e+02 
       3.025686457223e-01       7.472376559222e+02 
       3.128073137542e-01       7.169443897171e+02 
       3.234320140196e-01       6.867895924637e+02 
       3.344680296385e-01       6.569134725731e+02 
       3.459443584860e-01       6.283256749562e+02 
       3.578944767381e-01       6.015926789106e+02 
       3.703573028675e-01       5.763302601236e+02 
       3.833784305362e-01       5.517250569163e+02 
       3.970117273281e-01       5.275334019790e+02 
       4.113214390395e-01       5.042013807099e+02 
       4.263850047871e-01       4.819782900630e+02 
       4.422968910103e-01       4.605268254590e+02 
       4.591739179347e-01       4.395552670878e+02 
       4.771628261627e-01       4.191020826267e+02 
       4.964512998628e-01       3.992650916614e+02 
       5.172844942657e-01       3.798350919098e+02 
       5.399906504551e-01       3.606412315841e+02 
       5.650223504894e-01       3.416772896310e+02 
       5.930260223700e-01       3.227155899348e+02 
       6.249654142557e-01       3.035633997754e+02 
       6.623550842264e-01       2.839289850891e+02 
       7.077351743624e-01       2.633721778034e+02 
       7.657165391790e-01       2.412173609153e+02 
       8.454375982983e-01       2.164028541272e+02 
       9.660674755749e-01       1.874582957889e+02 
       1.161689345139e+00       1.540055011601e+02 
       1.451971339484e+00       1.208755534801e+02 
       1.827504437027e+00       9.262147648557e+01 
       2.300688242526e+00       6.894278937380e+01 
       2.896394888134e+00       4.940019152485e+01 
       3.646345127262e+00       3.395714144144e+01 
       4.590476540882e+00       2.246268108971e+01 
       5.779067569561e+00       1.439524912495e+01 
       7.275415019796e+00       9.000150047537e+00 
       9.159204849771e+00       5.523345551009e+00 
       1.153075573720e+01       3.343516683788e+00 
