# Matter power spectrum P(k) at redshift z=1.5
# for k=8.65832e-06 to 10.914 h/Mpc,
# number of wavenumbers equal to 123
#    1:k (h/Mpc)              2:P (Mpc/h)^3        
       8.658317403443e-06       1.881129778092e+01 
       1.090017580257e-05       2.356393340314e+01 
       1.372250831088e-05       2.951730079872e+01 
       1.727561442613e-05       3.697465165728e+01 
       2.174871000541e-05       4.631593377421e+01 
       2.738000369955e-05       5.801690813623e+01 
       3.446938243239e-05       7.267337827635e+01 
       4.339438147298e-05       9.103128922914e+01 
       5.463028956543e-05       1.140243193905e+02 
       6.877545978759e-05       1.428205647953e+02 
       8.658317403443e-05       1.788803292685e+02 
       1.090017580257e-04       2.240271106415e+02 
       1.372250831088e-04       2.805337992651e+02 
       1.727561442613e-04       3.512253596446e+02 
       2.174871000541e-04       4.395973956846e+02 
       2.738000369955e-04       5.499459443487e+02 
       3.446938243239e-04       6.874965509361e+02 
       4.339438147298e-04       8.585095511140e+02 
       5.463028956543e-04       1.070325801727e+03 
       6.877545978759e-04       1.331310257861e+03 
       8.658317403443e-04       1.650654089909e+03 
       1.090017580257e-03       2.037970243529e+03 
       1.372250831088e-03       2.502454854032e+03 
       1.727561442613e-03       3.051284260953e+03 
       2.174871000541e-03       3.687311156601e+03 
       2.738000369955e-03       4.406102993545e+03 
       3.446938243239e-03       5.192469238311e+03 
       4.339438147298e-03       6.016333212771e+03 
       5.463028956543e-03       6.826883325815e+03 
       6.877545978759e-03       7.557578242815e+03 
       8.658317403443e-03       8.113435634848e+03 
       1.090017580257e-02       8.381001369326e+03 
       1.372250831088e-02       8.237214050686e+03 
       1.727561440320e-02       7.583923058813e+03 
       2.174868253922e-02       6.420802845966e+03 
       2.737450221922e-02       4.946556884451e+03 
       3.421628891852e-02       3.608110291415e+03 
       4.058291203044e-02       2.889232165253e+03 
       4.513810457297e-02       2.607958624956e+03 
       4.879305027008e-02       2.467331921067e+03 
       5.200953301981e-02       2.375232049874e+03 
       5.498467429341e-02       2.297299116122e+03 
       5.781908998337e-02       2.217435655561e+03 
       6.057156909915e-02       2.127666061885e+03 
       6.327998872009e-02       2.024716077852e+03 
       6.597063970475e-02       1.908656212824e+03 
       6.866289284275e-02       1.781923934979e+03 
       7.137174658302e-02       1.648703420635e+03 
       7.410931584928e-02       1.514182925544e+03 
       7.688575044060e-02       1.383738981989e+03 
       7.970982701254e-02       1.262564210255e+03 
       8.258934469302e-02       1.154728712103e+03 
       8.553139748435e-02       1.063093918461e+03 
       8.854256650088e-02       9.890408621177e+02 
       9.162905837772e-02       9.324980431228e+02 
       9.479680651477e-02       8.918507969524e+02 
       9.805154602429e-02       8.642746506150e+02 
       1.013988696713e-01       8.456658345727e+02 
       1.048442698301e-01       8.311166944909e+02 
       1.083931700161e-01       8.152665394187e+02 
       1.120509485916e-01       7.932348227193e+02 
       1.158229566077e-01       7.615025001668e+02 
       1.197145313185e-01       7.189761592520e+02 
       1.237310066255e-01       6.673360383737e+02 
       1.278777215188e-01       6.107257482827e+02 
       1.321600274652e-01       5.546109445357e+02 
       1.365832956122e-01       5.043487156336e+02 
       1.411529246297e-01       4.637658589618e+02 
       1.458743499816e-01       4.344537314782e+02 
       1.507530553980e-01       4.155155610619e+02 
       1.557945873088e-01       4.037363304960e+02 
       1.610045729880e-01       3.945109791658e+02 
       1.663887431568e-01       3.829612660190e+02 
       1.719529597912e-01       3.652936990718e+02 
       1.777032498903e-01       3.409358268741e+02 
       1.836458459857e-01       3.127306926138e+02 
       1.897872342170e-01       2.852154654479e+02 
       1.961342108736e-01       2.621623706986e+02 
       2.026939484227e-01       2.452960927661e+02 
       2.094740722148e-01       2.340356976601e+02 
       2.164827493083e-01       2.255777354358e+02 
       2.237287911912e-01       2.162713180053e+02 
       2.312217726431e-01       2.039641199764e+02 
       2.389721695932e-01       1.890874252481e+02 
       2.469915196469e-01       1.740482364866e+02 
       2.552926100338e-01       1.614900644104e+02 
       2.638896991547e-01       1.521824012009e+02 
       2.727987798086e-01       1.447677639016e+02 
       2.820378947194e-01       1.372779039026e+02 
       2.916275184298e-01       1.285467809029e+02 
       3.015910243320e-01       1.192887191050e+02 
       3.119552621376e-01       1.109617251680e+02 
       3.227512802578e-01       1.041781475917e+02 
       3.340152406707e-01       9.819580808082e+01 
       3.457895928684e-01       9.202678829367e+01 
       3.581246015984e-01       8.566728299123e+01 
       3.710803655221e-01       7.974314257724e+01 
       3.847295292619e-01       7.449797036179e+01 
       3.991609944527e-01       6.959617355170e+01 
       4.144851025507e-01       6.466338593072e+01 
       4.308410410961e-01       5.993376065227e+01 
       4.484077062775e-01       5.560310942396e+01 
       4.674201160107e-01       5.138668215673e+01 
       4.881950760740e-01       4.728079997352e+01 
       5.111729519429e-01       4.336699366834e+01 
       5.369889135787e-01       3.952375940104e+01 
       5.666013467127e-01       3.575720817994e+01 
       6.015388388028e-01       3.200504877165e+01 
       6.444121669801e-01       2.821102237045e+01 
       7.000630475013e-01       2.428493663459e+01 
       7.782826003433e-01       2.012178078441e+01 
       8.994882172127e-01       1.566963381121e+01 
       1.095384779146e+00       1.130601608035e+01 
       1.374092390061e+00       7.925632874846e+00 
       1.729745987277e+00       5.639296511431e+00 
       2.177620429971e+00       4.077927658069e+00 
       2.741461695887e+00       2.979007956184e+00 
       3.451295794412e+00       2.182838709988e+00 
       4.344923979203e+00       1.592443340170e+00 
       5.469935209733e+00       1.148436774293e+00 
       6.886240436401e+00       8.136419651146e-01 
       8.669263077109e+00       5.635598226567e-01 
       1.091395558930e+01       3.804720108987e-01 
