# Matter power spectrum P(k) at redshift z=2.5
# for k=8.16564e-06 to 10.2906 h/Mpc,
# number of wavenumbers equal to 123
#    1:k (h/Mpc)              2:P (Mpc/h)^3        
       8.165644720543e-06       1.327333836569e+01 
       1.027993764237e-05       1.654662391955e+01 
       1.294167472965e-05       2.062709954529e+01 
       1.629260318832e-05       2.571379743302e+01 
       2.051117217806e-05       3.205480461470e+01 
       2.582203588065e-05       3.995933471668e+01 
       3.250801715441e-05       4.981274864192e+01 
       4.092516888272e-05       6.209522914906e+01 
       5.152173508843e-05       7.740495860831e+01 
       6.486202156255e-05       9.648681631971e+01 
       8.165644720543e-05       1.202677538140e+02 
       1.027993764237e-04       1.499001275696e+02 
       1.294167472965e-04       1.868142231203e+02 
       1.629260318832e-04       2.327808176656e+02 
       2.051117217806e-04       2.899836209921e+02 
       2.582203588065e-04       3.610991507935e+02 
       3.250801715441e-04       4.493773281244e+02 
       4.092516888272e-04       5.587090530174e+02 
       5.152173508843e-04       6.936577807675e+02 
       6.486202156255e-04       8.594245791989e+02 
       8.165644720543e-04       1.061717808939e+03 
       1.027993764237e-03       1.306503992658e+03 
       1.294167472965e-03       1.599543735303e+03 
       1.629260318832e-03       1.945571620870e+03 
       2.051117217806e-03       2.346802764072e+03 
       2.582203588065e-03       2.801158382500e+03 
       3.250801715441e-03       3.300092560652e+03 
       4.092516888272e-03       3.825866974931e+03 
       5.152173508843e-03       4.348989953986e+03 
       6.486202156255e-03       4.825701995716e+03 
       8.165644720543e-03       5.196010885643e+03 
       1.027993764237e-02       5.385742910274e+03 
       1.294167472963e-02       5.313051527270e+03 
       1.629260307071e-02       4.912823583441e+03 
       2.051108035595e-02       4.187241847198e+03 
       2.580906243218e-02       3.272477122131e+03 
       3.206822354456e-02       2.472573961733e+03 
       3.737768763003e-02       2.068001534177e+03 
       4.122261402654e-02       1.892159227313e+03 
       4.438809008447e-02       1.792694141321e+03 
       4.721194768137e-02       1.721586240453e+03 
       4.984433933938e-02       1.659504714935e+03 
       5.236455201581e-02       1.597027445738e+03 
       5.482004674711e-02       1.529382730548e+03 
       5.724195949715e-02       1.454583420472e+03 
       5.965221176959e-02       1.372598893564e+03 
       6.206714507655e-02       1.284835070294e+03 
       6.449953821291e-02       1.193722525814e+03 
       6.695980148660e-02       1.102304119074e+03 
       6.945672115492e-02       1.013820018833e+03 
       7.199794340622e-02       9.313392550556e+02 
       7.459030010091e-02       8.573993259548e+02 
       7.724003437803e-02       7.937838326061e+02 
       7.995296063427e-02       7.413829101006e+02 
       8.273458015051e-02       7.001417571686e+02 
       8.559016592180e-02       6.690542516348e+02 
       8.852482558803e-02       6.462484435520e+02 
       9.154354846824e-02       6.291068295646e+02 
       9.465124086073e-02       6.144676933765e+02 
       9.785275257670e-02       5.989835640191e+02 
       1.011528968895e-01       5.796495485876e+02 
       1.045564655602e-01       5.544220586805e+02 
       1.080682402518e-01       5.227354370347e+02 
       1.116930014150e-01       4.857364224335e+02 
       1.154355355749e-01       4.460147512629e+02 
       1.193006418499e-01       4.069514775006e+02 
       1.232931384718e-01       3.718561468565e+02 
       1.274178700361e-01       3.431082798081e+02 
       1.316797161861e-01       3.216522687093e+02 
       1.360836024225e-01       3.068279058129e+02 
       1.406345137128e-01       2.964849216066e+02 
       1.453375115775e-01       2.876998729607e+02 
       1.501977553162e-01       2.773151207096e+02 
       1.552205280484e-01       2.630894314024e+02 
       1.604112682470e-01       2.448918984359e+02 
       1.657756074721e-01       2.246093573473e+02 
       1.713194150560e-01       2.050865958954e+02 
       1.770488505667e-01       1.886160268282e+02 
       1.829704249926e-01       1.762754467494e+02 
       1.890910717597e-01       1.675553972337e+02 
       1.954182289305e-01       1.605135929327e+02 
       2.019599342622e-01       1.528444968582e+02 
       2.087249352398e-01       1.433139343750e+02 
       2.157228167888e-01       1.322954650702e+02 
       2.229641501508e-01       1.214194542106e+02 
       2.304606674309e-01       1.123415159284e+02 
       2.382254676897e-01       1.054026518489e+02 
       2.462732622674e-01       9.967086907301e+01 
       2.546206694601e-01       9.384116663596e+01 
       2.632865719719e-01       8.724511801498e+01 
       2.722925550955e-01       8.044912684653e+01 
       2.816634498706e-01       7.437476266414e+01 
       2.914280143535e-01       6.937361055049e+01 
       3.016197988560e-01       6.486770637685e+01 
       3.122782595653e-01       6.026032705953e+01 
       3.234502124977e-01       5.557258193659e+01 
       3.351917614676e-01       5.125414760954e+01 
       3.475708983856e-01       4.742746767233e+01 
       3.606710767741e-01       4.381759601943e+01 
       3.745962266518e-01       4.021393406281e+01 
       3.894779600347e-01       3.680399642344e+01 
       4.054862049673e-01       3.367588740140e+01 
       4.228453885906e-01       3.063204022371e+01 
       4.418599543150e-01       2.769928742830e+01 
       4.629562958174e-01       2.491735955935e+01 
       4.867550991743e-01       2.219870521242e+01 
       5.142034987966e-01       1.955860785921e+01 
       5.468332937839e-01       1.694543487132e+01 
       5.873056839600e-01       1.433282019473e+01 
       6.406533083729e-01       1.166747107943e+01 
       7.172161035027e-01       8.906331522563e+00 
       8.381401692994e-01       6.103819450210e+00 
       1.030886620412e+00       3.662809166778e+00 
       1.295540515501e+00       2.062183391183e+00 
       1.630944807839e+00       1.144389877511e+00 
       2.053237695488e+00       6.294703632706e-01 
       2.584873111212e+00       3.437046870289e-01 
       3.254162445968e+00       1.865576827147e-01 
       4.096747797336e+00       1.007886998737e-01 
       5.157499907778e+00       5.425317957930e-02 
       6.492907695227e+00       2.911940458723e-02 
       8.174086493956e+00       1.559090505747e-02 
       1.029056520544e+01       8.328700429937e-03 
