# Matter power spectrum P(k) at redshift z=0.5
# for k=1.07236e-05 to 10.7347 h/Mpc,
# number of wavenumbers equal to 122
#    1:k (h/Mpc)              2:P (Mpc/h)^3        
       1.072364813386e-05       3.497324855809e+01 
       1.350027314286e-05       4.338156900857e+01 
       1.699583692571e-05       5.381139074692e+01 
       2.139649100048e-05       6.674867446275e+01 
       2.693658624373e-05       8.279612958214e+01 
       3.391115292922e-05       1.027013041599e+02 
       4.269161216583e-05       1.273912151086e+02 
       5.374555542602e-05       1.580153112864e+02 
       6.766164549681e-05       1.959985471431e+02 
       8.518096491974e-05       2.431067597700e+02 
       1.072364813386e-04       3.015269884678e+02 
       1.350027314286e-04       3.739655643950e+02 
       1.699583692571e-04       4.637667962349e+02 
       2.139649100048e-04       5.750545144158e+02 
       2.693658624373e-04       7.128970237906e+02 
       3.391115292922e-04       8.834924674665e+02 
       4.269161216583e-04       1.094365352387e+03 
       5.374555542602e-04       1.354556203600e+03 
       6.766164549681e-04       1.674776946980e+03 
       8.518096491974e-04       2.067496013472e+03 
       1.072364813386e-03       2.546893340797e+03 
       1.350027314286e-03       3.128537305942e+03 
       1.699583692571e-03       3.828510865752e+03 
       2.139649100048e-03       4.661763832558e+03 
       2.693658624373e-03       5.639603461883e+03 
       3.391115292922e-03       6.765941590926e+03 
       4.269161216583e-03       8.032248967898e+03 
       5.374555542602e-03       9.384604176293e+03 
       6.766164549681e-03       1.081069075536e+04 
       8.518096491974e-03       1.220595685131e+04 
       1.072364813386e-02       1.344304566179e+04 
       1.350027314286e-02       1.435797764173e+04 
       1.699583692563e-02       1.475626100495e+04 
       2.139649062157e-02       1.446112869144e+04 
       2.693635124231e-02       1.339905588374e+04 
       3.388362406836e-02       1.173605648434e+04 
       4.190503080650e-02       1.003106942658e+04 
       4.839171484437e-02       8.989032713648e+03 
       5.315325184940e-02       8.388359790498e+03 
       5.712430376765e-02       7.957889233419e+03 
       6.069111500343e-02       7.602449710203e+03 
       6.402937996864e-02       7.282140774252e+03 
       6.723354482742e-02       6.977219423736e+03 
       7.036087287518e-02       6.677731249895e+03 
       7.344929482025e-02       6.379691607531e+03 
       7.652572146757e-02       6.082390890292e+03 
       7.961034113869e-02       5.787578786920e+03 
       8.271902596733e-02       5.498631173555e+03 
       8.586476640145e-02       5.219655427135e+03 
       8.905857047890e-02       4.954882276295e+03 
       9.231005119090e-02       4.708060999001e+03 
       9.562782332054e-02       4.482149577622e+03 
       9.901977916191e-02       4.278557180240e+03 
       1.024932845399e-01       4.097256698506e+03 
       1.060553207780e-01       3.936363137467e+03 
       1.097125890170e-01       3.792518805709e+03 
       1.134715876900e-01       3.661033564883e+03 
       1.173386704663e-01       3.536523587944e+03 
       1.213200897526e-01       3.413431323690e+03 
       1.254220293934e-01       3.287123767680e+03 
       1.296506292582e-01       3.154553844965e+03 
       1.340120037703e-01       3.015004689823e+03 
       1.385122560092e-01       2.870329170722e+03 
       1.431574887411e-01       2.724553050417e+03 
       1.479538135440e-01       2.582959717275e+03 
       1.529073590780e-01       2.450722962148e+03 
       1.580242794729e-01       2.331660538882e+03 
       1.633107637616e-01       2.227170811305e+03 
       1.687730472520e-01       2.135896895794e+03 
       1.744174257192e-01       2.054077547374e+03 
       1.802502732797e-01       1.976607877629e+03 
       1.862780648060e-01       1.898660863364e+03 
       1.925074037339e-01       1.817262701569e+03 
       1.989450561197e-01       1.732399157308e+03 
       2.055979918192e-01       1.646875731119e+03 
       2.124734336951e-01       1.564880933695e+03 
       2.195789158221e-01       1.490203502214e+03 
       2.269223517600e-01       1.424187357436e+03 
       2.345121141213e-01       1.365023394741e+03 
       2.423571268838e-01       1.309591795408e+03 
       2.504669722162e-01       1.255325492811e+03 
       2.588520140160e-01       1.200647537221e+03 
       2.675235409455e-01       1.146022335631e+03 
       2.764939325241e-01       1.093607315511e+03 
       2.857768528651e-01       1.045248785117e+03 
       2.953874780035e-01       1.001085209109e+03 
       3.053427645620e-01       9.600122235119e+02 
       3.156617699004e-01       9.202046889840e+02 
       3.263660371226e-01       8.809822531619e+02 
       3.374800626894e-01       8.431087565568e+02 
       3.490318704090e-01       8.073377863246e+02 
       3.610537239495e-01       7.739528297040e+02 
       3.735830218661e-01       7.421832041988e+02 
       3.866634361345e-01       7.114199528059e+02 
       4.003463800185e-01       6.816206611239e+02 
       4.146929280675e-01       6.532261747341e+02 
       4.297763671821e-01       6.261012159801e+02 
       4.456856449046e-01       5.999290158535e+02 
       4.625301199526e-01       5.745456473036e+02 
       4.804462472412e-01       5.499705111647e+02 
       4.996072130332e-01       5.261159518777e+02 
       5.202372053406e-01       5.027945452118e+02 
       5.426332199724e-01       4.798441457995e+02 
       5.671996077878e-01       4.571610064909e+02 
       5.945051652956e-01       4.344971864280e+02 
       6.253822719277e-01       4.116033711137e+02 
       6.611094011842e-01       3.881121334248e+02 
       7.037709461549e-01       3.634973427075e+02 
       7.570238387096e-01       3.369440064466e+02 
       8.278601466388e-01       3.071173246439e+02 
       9.307537275694e-01       2.718753193643e+02 
       1.094754952009e+00       2.288244789078e+02 
       1.352972201673e+00       1.805490948402e+02 
       1.701357008344e+00       1.364944317164e+02 
       2.141850483859e+00       9.981694919855e+01 
       2.696429907170e+00       7.038347201443e+01 
       3.394604131219e+00       4.784777606958e+01 
       4.273553403773e+00       3.147747090073e+01 
       5.380084978669e+00       2.014865875827e+01 
       6.773125697258e+00       1.261767402129e+01 
       8.526860057555e+00       7.768122695351e+00 
       1.073468080927e+01       4.720852812266e+00 
