# Matter power spectrum P(k) at redshift z=2.5
# for k=1.11189e-05 to 11.1307 h/Mpc,
# number of wavenumbers equal to 122
#    1:k (h/Mpc)              2:P (Mpc/h)^3        
       1.111887212663e-05       3.350226151708e+00 
       1.399783067071e-05       4.197818870638e+00 
       1.762222474135e-05       5.259845868537e+00 
       2.218506653923e-05       6.590554310075e+00 
       2.792934402858e-05       8.257911740187e+00 
       3.516096093232e-05       1.034707350714e+01 
       4.426502722081e-05       1.296472334756e+01 
       5.572636762203e-05       1.624450440451e+01 
       7.015534030636e-05       2.035380998004e+01 
       8.832034068474e-05       2.550226079382e+01 
       1.111887212663e-04       3.195226943288e+01 
       1.399783067071e-04       4.003215859224e+01 
       1.762222474135e-04       5.015236981073e+01 
       2.218506653923e-04       6.282532155654e+01 
       2.792934402858e-04       7.868941993080e+01 
       3.516096093232e-04       9.853748038428e+01 
       4.426502722081e-04       1.233492357213e+02 
       5.572636762203e-04       1.543264879917e+02 
       7.015534030636e-04       1.929276765707e+02 
       8.832034068474e-04       2.408964452394e+02 
       1.111887212663e-03       3.002771199502e+02 
       1.399783067071e-03       3.734048933690e+02 
       1.762222474135e-03       4.628555927696e+02 
       2.218506653923e-03       5.713483078758e+02 
       2.792934402858e-03       7.014317327897e+02 
       3.516096093232e-03       8.550494110130e+02 
       4.426502722081e-03       1.032892504850e+03 
       5.572636762203e-03       1.232708528375e+03 
       7.015534030636e-03       1.450571515750e+03 
       8.832034068474e-03       1.675878681010e+03 
       1.111887212663e-02       1.891444939987e+03 
       1.399783067071e-02       2.071755882205e+03 
       1.762222474121e-02       2.182965983288e+03 
       2.218506596965e-02       2.188316918404e+03 
       2.792902309565e-02       2.064099279456e+03 
       3.512619280346e-02       1.827952050247e+03 
       4.334161103321e-02       1.574659080899e+03 
       4.986237291387e-02       1.424361743040e+03 
       5.468083496602e-02       1.341116807110e+03 
       5.872027343790e-02       1.284099976068e+03 
       6.235855222202e-02       1.238442365447e+03 
       6.576925039987e-02       1.197469571826e+03 
       6.904636755870e-02       1.157653948535e+03 
       7.224719904745e-02       1.117040680305e+03 
       7.540984949714e-02       1.074636933078e+03 
       7.856143981548e-02       1.030139050433e+03 
       8.172237004447e-02       9.837709512250e+02 
       8.490871505931e-02       9.361647620987e+02 
       8.813365691771e-02       8.882468057829e+02 
       9.140838490803e-02       8.411122320381e+02 
       9.474268455846e-02       7.959006087869e+02 
       9.814533622574e-02       7.536666024205e+02 
       1.016243923971e-01       7.152573569550e+02 
       1.051873750483e-01       6.812282293706e+02 
       1.088414187028e-01       6.517523135146e+02 
       1.125933756221e-01       6.266020629183e+02 
       1.164498939620e-01       6.051400387817e+02 
       1.204174762436e-01       5.863635223928e+02 
       1.245025232549e-01       5.690009404714e+02 
       1.287113670528e-01       5.516712975912e+02 
       1.330502957781e-01       5.331066393322e+02 
       1.375255723604e-01       5.123939088645e+02 
       1.421434487683e-01       4.891917849547e+02 
       1.469101771783e-01       4.638387508068e+02 
       1.518320192513e-01       4.373041899014e+02 
       1.569152545866e-01       4.109779827121e+02 
       1.621661893485e-01       3.863456098700e+02 
       1.675911660105e-01       3.646051918779e+02 
       1.731965751356e-01       3.463509411483e+02 
       1.789888700905e-01       3.314190243860e+02 
       1.849745855791e-01       3.189048465090e+02 
       1.911603608729e-01       3.074884136051e+02 
       1.975529686121e-01       2.956278039691e+02 
       2.041593500552e-01       2.821956348074e+02 
       2.109866576724e-01       2.670315561192e+02 
       2.180423060132e-01       2.509653681574e+02 
       2.253340318475e-01       2.353232959048e+02 
       2.328699646805e-01       2.213237772174e+02 
       2.406587089110e-01       2.096033483488e+02 
       2.487094391315e-01       1.999724879562e+02 
       2.570320104017e-01       1.914338428320e+02 
       2.656370857770e-01       1.827903456461e+02 
       2.745362839804e-01       1.733435128652e+02 
       2.837423509120e-01       1.632174208916e+02 
       2.932693597608e-01       1.532723871746e+02 
       3.031329458935e-01       1.444351535237e+02 
       3.133505845699e-01       1.369426593382e+02 
       3.239419220285e-01       1.303061250786e+02 
       3.349291738430e-01       1.237453245495e+02 
       3.463376090128e-01       1.168539862686e+02 
       3.581961445164e-01       1.099319839502e+02 
       3.705380838005e-01       1.035335893563e+02 
       3.834020450297e-01       9.789287900481e+01 
       3.968331426887e-01       9.266285939166e+01 
       4.108845120900e-01       8.744542873150e+01 
       4.256193050311e-01       8.223601251191e+01 
       4.411133436727e-01       7.733784874480e+01 
       4.574587112059e-01       7.283626508938e+01 
       4.747687037489e-01       6.852150719775e+01 
       4.931848069842e-01       6.425289246900e+01 
       5.128867651019e-01       6.016228243634e+01 
       5.341075165328e-01       5.629780291403e+01 
       5.571560569739e-01       5.250782228973e+01 
       5.824537355759e-01       4.880921315641e+01 
       6.105943800035e-01       4.521796338141e+01 
       6.424489990188e-01       4.165057129280e+01 
       6.793591835549e-01       3.810088667561e+01 
       7.235198812262e-01       3.449718784516e+01 
       7.787983466681e-01       3.077060793719e+01 
       8.526234142375e-01       2.680696240929e+01 
       9.604162767357e-01       2.247101447351e+01 
       1.132818899165e+00       1.775541985251e+01 
       1.402600102979e+00       1.328458606465e+01 
       1.764112105652e+00       9.872883186928e+00 
       2.220860999767e+00       7.393401136400e+00 
       2.795898280302e+00       5.543061160666e+00 
       3.519827393839e+00       4.128599563957e+00 
       4.431200151233e+00       3.033386511008e+00 
       5.578550475133e+00       2.185451732547e+00 
       7.022978954122e+00       1.536946570746e+00 
       8.841406671840e+00       1.051747363440e+00 
       1.113067153519e+01       6.991361340965e-01 
