# Matter power spectrum P(k) at redshift z=2
# for k=1.01046e-05 to 10.1156 h/Mpc,
# number of wavenumbers equal to 122
#    1:k (h/Mpc)              2:P (Mpc/h)^3        
       1.010455554853e-05       1.238555930162e+01 
       1.272088175493e-05       1.540369509596e+01 
       1.601464130171e-05       1.915727664935e+01 
       2.016123889549e-05       2.382549328507e+01 
       2.538149597878e-05       2.963118503427e+01 
       3.195341027704e-05       3.685143556066e+01 
       4.022696019125e-05       4.583076473034e+01 
       5.064274242400e-05       5.699746339101e+01 
       6.375543536052e-05       7.088383192077e+01 
       8.026333771536e-05       8.815118026361e+01 
       1.010455554853e-04       1.096205874837e+02 
       1.272088175493e-04       1.363105029481e+02 
       1.601464130171e-04       1.694822445634e+02 
       2.016123889549e-04       2.106941361102e+02 
       2.538149597878e-04       2.618641714032e+02 
       3.195341027704e-04       3.253392197402e+02 
       4.022696019125e-04       4.039652697083e+02 
       5.064274242400e-04       5.011474860247e+02 
       6.375543536052e-04       6.208813812178e+02 
       8.026333771536e-04       7.677303334033e+02 
       1.010455554853e-03       9.467253082053e+02 
       1.272088175493e-03       1.163163283721e+03 
       1.601464130171e-03       1.422233497158e+03 
       2.016123889549e-03       1.728284529134e+03 
       2.538149597878e-03       2.083629886784e+03 
       3.195341027704e-03       2.487066508106e+03 
       4.022696019125e-03       2.932038527724e+03 
       5.064274242400e-03       3.404609488706e+03 
       6.375543536052e-03       3.878716140281e+03 
       8.026333771536e-03       4.325468795256e+03 
       1.010455554853e-02       4.698372774831e+03 
       1.272088175493e-02       4.945012086737e+03 
       1.601464130170e-02       5.010054963010e+03 
       2.016123881333e-02       4.848525264894e+03 
       2.538142179222e-02       4.449865105897e+03 
       3.194161047227e-02       3.869387781129e+03 
       3.978253579508e-02       3.259182124035e+03 
       4.664629624021e-02       2.849795598260e+03 
       5.158552456909e-02       2.614354315161e+03 
       5.561753762347e-02       2.446430217628e+03 
       5.919832617007e-02       2.308763532348e+03 
       6.252769841015e-02       2.186781447338e+03 
       6.570996396310e-02       2.073835163904e+03 
       6.880705546949e-02       1.966739949178e+03 
       7.185935515852e-02       1.864179640021e+03 
       7.489515738777e-02       1.765805887604e+03 
       7.793547053065e-02       1.671823303650e+03 
       8.099666743285e-02       1.582761218832e+03 
       8.409204759358e-02       1.499180602635e+03 
       8.723280750900e-02       1.421566631624e+03 
       9.042866968538e-02       1.350198291521e+03 
       9.368830497335e-02       1.285039611619e+03 
       9.701962449261e-02       1.225736715308e+03 
       1.004299863004e-01       1.171598960686e+03 
       1.039263445691e-01       1.121655081744e+03 
       1.075153589210e-01       1.074756273629e+03 
       1.112034754810e-01       1.029695528765e+03 
       1.149969874272e-01       9.854050102683e+02 
       1.189020804259e-01       9.410791398910e+02 
       1.229248667820e-01       8.963216939421e+02 
       1.270714111138e-01       8.512106897958e+02 
       1.313477496852e-01       8.062566883063e+02 
       1.357599050767e-01       7.623045889348e+02 
       1.403138975751e-01       7.203129782428e+02 
       1.450157544651e-01       6.810897786248e+02 
       1.498715182788e-01       6.451313990951e+02 
       1.548872549737e-01       6.124403565638e+02 
       1.600690629626e-01       5.825494088191e+02 
       1.654230838820e-01       5.546733054820e+02 
       1.709555159717e-01       5.279303788474e+02 
       1.766726309171e-01       5.016171260287e+02 
       1.825807950035e-01       4.754267380273e+02 
       1.886864954233e-01       4.495252731608e+02 
       1.949963725795e-01       4.242722251328e+02 
       2.015172592421e-01       4.004241059670e+02 
       2.082562274439e-01       3.784035662295e+02 
       2.152206440551e-01       3.581543036700e+02 
       2.224182360712e-01       3.393529324159e+02 
       2.298571667869e-01       3.215136166648e+02 
       2.375461242378e-01       3.042138672804e+02 
       2.454944235820e-01       2.874480729640e+02 
       2.537121254983e-01       2.714556813677e+02 
       2.622101732175e-01       2.563242539474e+02 
       2.710005515302e-01       2.421056207830e+02 
       2.800964720710e-01       2.288452102554e+02 
       2.895125904479e-01       2.163352494337e+02 
       2.992652624652e-01       2.043811068554e+02 
       3.093728489204e-01       1.929998712247e+02 
       3.198560814569e-01       1.821769737520e+02 
       3.307385060111e-01       1.719715667362e+02 
       3.420470259645e-01       1.623553054449e+02 
       3.538125748354e-01       1.532260815034e+02 
       3.660709592427e-01       1.445722443004e+02 
       3.788639284566e-01       1.363150843192e+02 
       3.922405495420e-01       1.285024301668e+02 
       4.062590007360e-01       1.210818118509e+02 
       4.209889465804e-01       1.140246947216e+02 
       4.365147369952e-01       1.072785259805e+02 
       4.529397970892e-01       1.008582645320e+02 
       4.703927772523e-01       9.471600646218e+01 
       4.890363729832e-01       8.882112617466e+01 
       5.090803132207e-01       8.315814565155e+01 
       5.308010770367e-01       7.769171943572e+01 
       5.545728927965e-01       7.238846400876e+01 
       5.809185090195e-01       6.721050952069e+01 
       6.105964332280e-01       6.211385616530e+01 
       6.447595546547e-01       5.704320536923e+01 
       6.852633801321e-01       5.192796747480e+01 
       7.353123554855e-01       4.666099015938e+01 
       8.009255828011e-01       4.109218735514e+01 
       8.944060325044e-01       3.501367326804e+01 
       1.041130650251e+00       2.829041951381e+01 
       1.276405805904e+00       2.148828611660e+01 
       1.603276053467e+00       1.595819716247e+01 
       2.018325886971e+00       1.186583486209e+01 
       2.540921403102e+00       8.791976874801e+00 
       3.198830523517e+00       6.444721212266e+00 
       4.027089034078e+00       4.644027234179e+00 
       5.069804720559e+00       3.273379405138e+00 
       6.382505995546e+00       2.249188907146e+00 
       8.035098988721e+00       1.503679385206e+00 
       1.011559030318e+01       9.776516799416e-01 
