# Matter power spectrum P(k) at redshift z=2
# for k=9.81098e-06 to 12.3681 h/Mpc,
# number of wavenumbers equal to 123
#    1:k (h/Mpc)              2:P (Mpc/h)^3        
       9.810977170579e-06       1.298526910218e+01 
       1.235128847457e-05       1.609162559955e+01 
       1.554935092904e-05       1.994106161786e+01 
       1.957547302148e-05       2.471130420286e+01 
       2.464406043463e-05       3.062256351996e+01 
       3.102503393094e-05       3.794766150468e+01 
       3.905820361744e-05       4.702455110406e+01 
       4.917136507303e-05       5.827177734040e+01 
       6.190308102304e-05       7.220749535291e+01 
       7.793136176826e-05       8.947281789627e+01 
       9.810977170579e-05       1.108602732840e+02 
       1.235128847457e-04       1.373481518704e+02 
       1.554935092904e-04       1.701413181241e+02 
       1.957547302148e-04       2.107183926177e+02 
       2.464406043463e-04       2.608838202083e+02 
       3.102503393094e-04       3.228205177594e+02 
       3.905820361744e-04       3.991339060252e+02 
       4.917136507303e-04       4.928706192212e+02 
       6.190308102304e-04       6.074866353493e+02 
       7.793136176826e-04       7.467354994824e+02 
       9.810977170579e-04       9.144567178792e+02 
       1.235128847457e-03       1.114256788567e+03 
       1.554935092904e-03       1.349019634216e+03 
       1.957547302148e-03       1.620040450896e+03 
       2.464406043463e-03       1.925751937841e+03 
       3.102503393094e-03       2.260425395446e+03 
       3.905820361744e-03       2.612859702726e+03 
       4.917136507303e-03       2.965339145031e+03 
       6.190308102304e-03       3.293346453420e+03 
       7.793136176826e-03       3.566446177026e+03 
       9.810977170579e-03       3.750160938027e+03 
       1.235128847457e-02       3.809812383034e+03 
       1.554935092904e-02       3.715243811095e+03 
       1.957547301983e-02       3.449499039644e+03 
       2.464405652996e-02       3.022661020409e+03 
       3.102366777705e-02       2.488915791044e+03 
       3.895798148034e-02       1.954127334577e+03 
       4.735471885879e-02       1.567874300523e+03 
       5.354659710406e-02       1.370941096019e+03 
       5.829697346940e-02       1.250422752971e+03 
       6.237626805622e-02       1.159129478231e+03 
       6.609842734132e-02       1.081517066283e+03 
       6.961493721594e-02       1.011271158922e+03 
       7.301082948901e-02       9.456599982006e+02 
       7.633929706454e-02       8.835806167609e+02 
       7.963642550060e-02       8.247867353452e+02 
       8.292831143954e-02       7.694489775114e+02 
       8.623484707563e-02       7.179184644526e+02 
       8.957188589815e-02       6.705564536523e+02 
       9.295255641435e-02       6.276173377851e+02 
       9.638809741563e-02       5.891783135855e+02 
       9.988840990333e-02       5.550984722747e+02 
       1.034624335813e-01       5.250125971272e+02 
       1.071184105176e-01       4.983387097348e+02 
       1.108640738033e-01       4.743355624321e+02 
       1.147067848861e-01       4.521702604600e+02 
       1.186536348729e-01       4.310104000180e+02 
       1.227115199627e-01       4.101397119970e+02 
       1.268871979517e-01       3.890542785828e+02 
       1.311873306810e-01       3.675303906628e+02 
       1.356185159478e-01       3.456829896846e+02 
       1.401873115060e-01       3.238835314031e+02 
       1.449002531898e-01       3.026860494880e+02 
       1.497638687943e-01       2.826853460049e+02 
       1.547846890908e-01       2.643649715339e+02 
       1.599692571757e-01       2.479750598734e+02 
       1.653241372483e-01       2.334440866644e+02 
       1.708559238375e-01       2.204667704057e+02 
       1.765712524582e-01       2.085442762761e+02 
       1.824768126473e-01       1.971594395772e+02 
       1.885793643146e-01       1.859028431557e+02 
       1.948857583297e-01       1.746294966102e+02 
       2.014029622597e-01       1.634559838849e+02 
       2.081380921712e-01       1.526158916721e+02 
       2.150984514152e-01       1.424573188727e+02 
       2.222915773387e-01       1.332655086344e+02 
       2.297252969104e-01       1.249491362181e+02 
       2.374077923261e-01       1.173039454202e+02 
       2.453476777862e-01       1.101049176300e+02 
       2.535540888262e-01       1.031365606847e+02 
       2.620367858472e-01       9.638562289151e+01 
       2.708062738745e-01       9.000193281507e+01 
       2.798739410768e-01       8.403383490506e+01 
       2.892522192693e-01       7.845611361997e+01 
       2.989547705275e-01       7.330146358000e+01 
       3.089967052469e-01       6.849664204596e+01 
       3.193948385700e-01       6.391997916347e+01 
       3.301679942165e-01       5.959790710890e+01 
       3.413373675709e-01       5.553089810884e+01 
       3.529269636882e-01       5.171250717327e+01 
       3.649641310582e-01       4.815645006407e+01 
       3.774802191193e-01       4.480125849702e+01 
       3.905113975220e-01       4.165698132459e+01 
       4.040996893433e-01       3.867839498054e+01 
       4.182942909721e-01       3.588344542444e+01 
       4.331532815166e-01       3.325870951887e+01 
       4.487458697274e-01       3.078738544421e+01 
       4.651553954760e-01       2.844414387199e+01 
       4.824834109062e-01       2.624531613813e+01 
       5.008553399225e-01       2.415998742346e+01 
       5.204285013802e-01       2.218643547016e+01 
       5.414037702353e-01       2.031832777320e+01 
       5.640430149136e-01       1.853857002689e+01 
       5.886960389249e-01       1.684039664599e+01 
       6.158438170751e-01       1.521337624554e+01 
       6.461710309213e-01       1.364603054421e+01 
       6.806942859104e-01       1.212476194668e+01 
       7.210031535738e-01       1.063217532639e+01 
       7.697470253297e-01       9.151667714774e+00 
       8.316994539937e-01       7.656563352388e+00 
       9.162506999938e-01       6.118948647654e+00 
       1.043081119169e+00       4.522306151582e+00 
       1.248433265782e+00       2.964010443595e+00 
       1.557565638280e+00       1.753097679017e+00 
       1.960213007148e+00       1.010333388933e+00 
       2.467755700027e+00       5.787935973137e-01 
       3.106720350358e+00       3.298104359490e-01 
       3.911129196401e+00       1.868906892706e-01 
       4.923819934160e+00       1.052805828035e-01 
       6.198722038212e+00       5.894170766926e-02 
       7.803728694554e+00       3.279099210074e-02 
       9.824312360321e+00       1.812772702405e-02 
       1.236807648381e+01       9.962059513875e-03 
