# Matter power spectrum P(k) at redshift z=1
# for k=9.22682e-06 to 11.628 h/Mpc,
# number of wavenumbers equal to 123
#    1:k (h/Mpc)              2:P (Mpc/h)^3        
       9.226815390196e-06       2.591660528813e+01 
       1.161587236465e-05       3.216974523625e+01 
       1.462351690002e-05       3.993160925388e+01 
       1.840991703523e-05       4.956617958293e+01 
       2.317671238468e-05       6.152524245822e+01 
       2.917775218291e-05       7.636950489341e+01 
       3.673261368210e-05       9.479482569749e+01 
       4.624362080602e-05       1.176646934741e+02 
       5.821726936607e-05       1.460504049232e+02 
       7.329119981021e-05       1.812806857891e+02 
       9.226815390196e-05       2.250028039694e+02 
       1.161587236465e-04       2.792574562033e+02 
       1.462351690002e-04       3.465698702107e+02 
       1.840991703523e-04       4.300593339990e+02 
       2.317671238468e-04       5.335684463115e+02 
       2.917775218291e-04       6.618112223981e+02 
       3.673261368210e-04       8.205350865325e+02 
       4.624362080602e-04       1.016685496525e+03 
       5.821726936607e-04       1.258554441358e+03 
       7.329119981021e-04       1.555887786886e+03 
       9.226815390196e-04       1.919835701688e+03 
       1.161587236465e-03       2.362917349693e+03 
       1.462351690002e-03       2.898601681801e+03 
       1.840991703523e-03       3.540058536487e+03 
       2.317671238468e-03       4.298419193747e+03 
       2.917775218291e-03       5.179998993391e+03 
       3.673261368210e-03       6.182350152520e+03 
       4.624362080602e-03       7.281039397191e+03 
       5.821726936607e-03       8.448567564767e+03 
       7.329119981021e-03       9.609794957823e+03 
       9.226815390196e-03       1.065250679513e+04 
       1.161587236465e-02       1.141612814630e+04 
       1.462351689993e-02       1.169519886115e+04 
       1.840991664369e-02       1.128275560913e+04 
       2.317648076164e-02       1.008400511317e+04 
       2.915164369338e-02       8.300837897027e+03 
       3.601288526056e-02       6.610624323949e+03 
       4.150997390835e-02       5.713895333413e+03 
       4.555808296599e-02       5.278778024969e+03 
       4.894283569806e-02       5.017100830292e+03 
       5.198719185027e-02       4.829953967003e+03 
       5.483877014235e-02       4.673517533633e+03 
       5.757721350859e-02       4.524523759203e+03 
       6.025093626421e-02       4.369401448105e+03 
       6.289207112286e-02       4.200627437183e+03 
       6.552345133831e-02       4.015090540661e+03 
       6.816222867761e-02       3.813171179166e+03 
       7.082190292446e-02       3.598098200443e+03 
       7.351353349417e-02       3.375267416359e+03 
       7.624649986668e-02       3.151518420020e+03 
       7.902899873902e-02       2.934391803696e+03 
       8.186838017992e-02       2.731043337441e+03 
       8.477138133871e-02       2.547585917361e+03 
       8.774429268662e-02       2.388553526452e+03 
       9.079307846813e-02       2.256234445476e+03 
       9.392346523824e-02       2.150756158602e+03 
       9.714100763106e-02       2.069752168137e+03 
       1.004511375556e-01       2.008542032989e+03 
       1.038592011314e-01       1.960340031082e+03 
       1.073704864544e-01       1.917050767600e+03 
       1.109902444727e-01       1.870114012155e+03 
       1.147237047222e-01       1.811963555990e+03 
       1.185760873073e-01       1.737811778877e+03 
       1.225526122817e-01       1.646548062865e+03 
       1.266585074240e-01       1.541694769408e+03 
       1.308990153036e-01       1.430543087649e+03 
       1.352794004688e-01       1.322389673993e+03 
       1.398049575479e-01       1.226210694996e+03 
       1.444810210297e-01       1.148164710031e+03 
       1.493129774739e-01       1.090486487199e+03 
       1.543062808908e-01       1.050972641776e+03 
       1.594664720229e-01       1.022555942192e+03 
       1.647992022583e-01       9.957468362587e+02 
       1.703102629085e-01       9.618977795511e+02 
       1.760056205974e-01       9.159307838257e+02 
       1.818914595381e-01       8.586105261641e+02 
       1.879742315277e-01       7.961752720282e+02 
       1.942607145794e-01       7.376409173814e+02 
       2.007580812440e-01       6.903286546629e+02 
       2.074739778680e-01       6.565206383587e+02 
       2.144166163086e-01       6.330802688337e+02 
       2.215948799985e-01       6.126262549982e+02 
       2.290184467562e-01       5.875491693794e+02 
       2.366979314071e-01       5.548620200332e+02 
       2.446450521659e-01       5.178507708523e+02 
       2.528728258983e-01       4.831604692921e+02 
       2.613957989379e-01       4.560188360646e+02 
       2.702303221945e-01       4.362394796241e+02 
       2.793948820766e-01       4.191642254002e+02 
       2.889105025232e-01       3.995256723216e+02 
       2.988012386309e-01       3.761635119469e+02 
       3.090947895925e-01       3.527496197795e+02 
       3.198232688856e-01       3.332968547553e+02 
       3.310241843302e-01       3.178961240732e+02 
       3.427417020944e-01       3.031091963862e+02 
       3.550283006742e-01       2.864748751038e+02 
       3.679469694364e-01       2.694857885390e+02 
       3.815741817834e-01       2.548147396796e+02 
       3.960039932492e-01       2.420291393951e+02 
       4.113538117472e-01       2.287037722280e+02 
       4.277727197193e-01       2.150539006234e+02 
       4.454538091325e-01       2.027776042610e+02 
       4.646530464150e-01       1.910362101591e+02 
       4.857191901654e-01       1.789479672249e+02 
       5.091432894881e-01       1.674788869666e+02 
       5.356447566641e-01       1.560083635442e+02 
       5.663300856739e-01       1.444641608159e+02 
       6.030063643245e-01       1.326880607006e+02 
       6.488506020791e-01       1.203926417446e+02 
       7.099512082091e-01       1.070977477316e+02 
       7.989292052587e-01       9.221517106215e+01 
       9.409955476419e-01       7.537723202538e+01 
       1.164017068630e+00       5.834409863106e+01 
       1.463894672871e+00       4.429451248886e+01 
       1.842910784851e+00       3.334541240116e+01 
       2.320087150267e+00       2.474489102396e+01 
       2.920816671021e+00       1.799562495283e+01 
       3.677090330340e+00       1.276841915879e+01 
       4.629182458328e+00       8.811171701048e+00 
       5.827795432621e+00       5.904417193473e+00 
       7.336759764865e+00       3.844265050025e+00 
       9.236433308217e+00       2.438475723020e+00 
       1.162798060606e+01       1.512772059726e+00 
