# Matter power spectrum P(k) at redshift z=0.5
# for k=9.01203e-06 to 11.3603 h/Mpc,
# number of wavenumbers equal to 123
#    1:k (h/Mpc)              2:P (Mpc/h)^3        
       9.012033844605e-06       6.233995396206e+01 
       1.134547841892e-05       7.754177672737e+01 
       1.428311109054e-05       9.645060850597e+01 
       1.798137151137e-05       1.199701883309e+02 
       2.263720553457e-05       1.492247933301e+02 
       2.849855329948e-05       1.856125103110e+02 
       3.587755294808e-05       2.308720350239e+02 
       4.516716311933e-05       2.871652944366e+02 
       5.686208942958e-05       3.571799791234e+02 
       7.158512935061e-05       4.442562999849e+02 
       9.012033844605e-05       5.525434007206e+02 
       1.134547841892e-04       6.871911854037e+02 
       1.428311109054e-04       8.545839279734e+02 
       1.798137151137e-04       1.062621099234e+03 
       2.263720553457e-04       1.321048523772e+03 
       2.849855329948e-04       1.641837210261e+03 
       3.587755294808e-04       2.039596941323e+03 
       4.516716311933e-04       2.531996843658e+03 
       5.686208942958e-04       3.140148491668e+03 
       7.158512935061e-04       3.888889550661e+03 
       9.012033844605e-04       4.806858010415e+03 
       1.134547841892e-03       5.926085122811e+03 
       1.428311109054e-03       7.280404655867e+03 
       1.798137151137e-03       8.903170139261e+03 
       2.263720553457e-03       1.082222912238e+04 
       2.849855329948e-03       1.305288983557e+04 
       3.587755294808e-03       1.558795113857e+04 
       4.516716311933e-03       1.832132886322e+04 
       5.686208942958e-03       2.125130069938e+04 
       7.158512935061e-03       2.416743404490e+04 
       9.012033844606e-03       2.680098955923e+04 
       1.134547841892e-02       2.878973447445e+04 
       1.428311108978e-02       2.968952390665e+04 
       1.798136948420e-02       2.908140615233e+04 
       2.263642952812e-02       2.680948628911e+04 
       2.843725717695e-02       2.333918864524e+04 
       3.468028072967e-02       2.014650361867e+04 
       3.933451357894e-02       1.839055270817e+04 
       4.287895118281e-02       1.735346780219e+04 
       4.590956069727e-02       1.660345450059e+04 
       4.866834672657e-02       1.597917991327e+04 
       5.127100520916e-02       1.540912370535e+04 
       5.378204692505e-02       1.485324456305e+04 
       5.624163222688e-02       1.429058081055e+04 
       5.867690405839e-02       1.371326893703e+04 
       6.110743285601e-02       1.311780682969e+04 
       6.354809869658e-02       1.251033837710e+04 
       6.601073505745e-02       1.189832144733e+04 
       6.850512319486e-02       1.129433530235e+04 
       7.103962296940e-02       1.071097460051e+04 
       7.362158892068e-02       1.016060138593e+04 
       7.625765366146e-02       9.653800335656e+03 
       7.895392609475e-02       9.198577538142e+03 
       8.171613310136e-02       8.798253314535e+03 
       8.454972259947e-02       8.452427055792e+03 
       8.745993951981e-02       8.155098506276e+03 
       9.045188235665e-02       7.896225244772e+03 
       9.353054551887e-02       7.662607468552e+03 
       9.670085114248e-02       7.438406731997e+03 
       9.996767300608e-02       7.207965160660e+03 
       1.033358545169e-01       6.958947449334e+03 
       1.068102222867e-01       6.683848225329e+03 
       1.103955965188e-01       6.383137723813e+03 
       1.140967992279e-01       6.064450112932e+03 
       1.179186611878e-01       5.742468844301e+03 
       1.218660284153e-01       5.433445320504e+03 
       1.259437689482e-01       5.152937090199e+03 
       1.301567806416e-01       4.910886396190e+03 
       1.345100006847e-01       4.709231910256e+03 
       1.390084175305e-01       4.541297499199e+03 
       1.436570859174e-01       4.392843933189e+03 
       1.484611456596e-01       4.248078805569e+03 
       1.534258448794e-01       4.091976977520e+03 
       1.585565683611e-01       3.917087430619e+03 
       1.638588717207e-01       3.727165142798e+03 
       1.693385221178e-01       3.535635675373e+03 
       1.750015462946e-01       3.357822066001e+03 
       1.808542868157e-01       3.203110671726e+03 
       1.869034675182e-01       3.073303459021e+03 
       1.931562693799e-01       2.961231480572e+03 
       1.996204182815e-01       2.854687272738e+03 
       2.063042865154e-01       2.742811004446e+03 
       2.132170103865e-01       2.622870398493e+03 
       2.203686269170e-01       2.501008657887e+03 
       2.277702335370e-01       2.386847490984e+03 
       2.354341758075e-01       2.286806039653e+03 
       2.433742697501e-01       2.199033095190e+03 
       2.516060674166e-01       2.116023979825e+03 
       2.601471770915e-01       2.031655964732e+03 
       2.690176532856e-01       1.945554983280e+03 
       2.782404768714e-01       1.862759687975e+03 
       2.878421529654e-01       1.787122718733e+03 
       2.978534644628e-01       1.717814608608e+03 
       3.083104339793e-01       1.650558160288e+03 
       3.192555687595e-01       1.583517038559e+03 
       3.307394957311e-01       1.518476393318e+03 
       3.428231437254e-01       1.457282131315e+03 
       3.555807078032e-01       1.398953013472e+03 
       3.691037555676e-01       1.341822183039e+03 
       3.835070414300e-01       1.285750172564e+03 
       3.989369456113e-01       1.231648503531e+03 
       4.155840734177e-01       1.178836348664e+03 
       4.337026863230e-01       1.126419240755e+03 
       4.536418190818e-01       1.074582731788e+03 
       4.758973536451e-01       1.022642283078e+03 
       5.012037975105e-01       9.698781265272e+02 
       5.307062275341e-01       9.154723540879e+02 
       5.663062038540e-01       8.580054315375e+02 
       6.114148676449e-01       7.953271482785e+02 
       6.727121156317e-01       7.238657434836e+02 
       7.641824231360e-01       6.379675662968e+02 
       9.120533016793e-01       5.327759242787e+02 
       1.136496804387e+00       4.192469937062e+02 
       1.430182951322e+00       3.174036028316e+02 
       1.800487528478e+00       2.316072022696e+02 
       2.266679491858e+00       1.624848271236e+02 
       2.853580412691e+00       1.098607587967e+02 
       3.592444896134e+00       7.197878371353e+01 
       4.522620170214e+00       4.597468049986e+01 
       5.693641460175e+00       2.878695229907e+01 
       7.167869919859e+00       1.775323630803e+01 
       9.023813590546e+00       1.082442815299e+01 
       1.136030824043e+01       6.544100050478e+00 
