# Matter power spectrum P(k) at redshift z=1
# for k=1.0604e-05 to 10.6167 h/Mpc,
# number of wavenumbers equal to 122
#    1:k (h/Mpc)              2:P (Mpc/h)^3        
       1.060396419339e-05       1.709268073740e+01 
       1.334959998882e-05       2.139930889051e+01 
       1.680615066321e-05       2.679100073290e+01 
       2.115769014435e-05       3.354113164141e+01 
       2.663595377759e-05       4.199191725368e+01 
       3.353267907799e-05       5.257176159132e+01 
       4.221514181682e-05       6.581691476207e+01 
       5.314571479569e-05       8.239854885968e+01 
       6.690649088426e-05       1.031565870085e+02 
       8.423028158816e-05       1.291418511649e+02 
       1.060396419339e-04       1.616685017156e+02 
       1.334959998882e-04       2.023789959459e+02 
       1.680615066321e-04       2.533240761648e+02 
       2.115769014435e-04       3.170603264452e+02 
       2.663595377759e-04       3.967673678841e+02 
       3.353267907799e-04       4.963853705698e+02 
       4.221514181682e-04       6.207706239702e+02 
       5.314571479569e-04       7.758619870618e+02 
       6.690649088426e-04       9.688446140355e+02 
       8.423028158816e-04       1.208290915352e+03 
       1.060396419339e-03       1.504249995635e+03 
       1.334959998882e-03       1.868222989674e+03 
       1.680615066321e-03       2.312841344243e+03 
       2.115769014435e-03       2.851132822441e+03 
       2.663595377759e-03       3.495196932583e+03 
       3.353267907799e-03       4.253929928885e+03 
       4.221514181682e-03       5.129793907886e+03 
       5.314571479569e-03       6.097451201678e+03 
       6.690649088426e-03       7.156752959543e+03 
       8.423028158816e-03       8.245506632728e+03 
       1.060396419339e-02       9.280693221876e+03 
       1.334959998882e-02       1.014277421454e+04 
       1.680615066279e-02       1.067673732064e+04 
       2.115768880185e-02       1.072236171306e+04 
       2.663535609214e-02       1.018597290294e+04 
       3.347925292264e-02       9.161436402252e+03 
       4.103541773255e-02       8.086506718553e+03 
       4.679212987559e-02       7.441630773563e+03 
       5.112295914649e-02       7.049239008420e+03 
       5.479835832422e-02       6.758562190554e+03 
       5.813057370957e-02       6.513313782256e+03 
       6.126657083117e-02       6.287901706206e+03 
       6.428737456129e-02       6.068612199374e+03 
       6.724301385758e-02       5.848322296072e+03 
       7.016708969652e-02       5.624124922979e+03 
       7.308370665708e-02       5.395269682100e+03 
       7.601111511447e-02       5.163184316605e+03 
       7.896377658818e-02       4.930648966047e+03 
       8.195360744380e-02       4.701555436735e+03 
       8.499076495212e-02       4.480041621587e+03 
       8.808416416368e-02       4.269993134614e+03 
       9.124182906716e-02       4.075103112968e+03 
       9.447113769045e-02       3.897684570730e+03 
       9.777899700404e-02       3.738883643817e+03 
       1.011719699706e-01       3.598191375067e+03 
       1.046563691110e-01       3.473696800245e+03 
       1.082383261016e-01       3.361807036539e+03 
       1.119238438745e-01       3.257956672417e+03 
       1.157188357471e-01       3.156970171044e+03 
       1.196291548382e-01       3.053830379765e+03 
       1.236606161883e-01       2.944698704476e+03 
       1.278190134471e-01       2.827442218709e+03 
       1.321101316168e-01       2.702666564721e+03 
       1.365397570984e-01       2.573239015972e+03 
       1.411136861205e-01       2.444020530630e+03 
       1.458377325334e-01       2.320377006139e+03 
       1.507177358774e-01       2.207316267507e+03 
       1.557595706006e-01       2.107836691307e+03 
       1.609691572696e-01       2.022072867435e+03 
       1.663524766039e-01       1.947542513787e+03 
       1.719155871518e-01       1.879309906084e+03 
       1.776646474191e-01       1.811939171817e+03 
       1.836059432587e-01       1.741267453044e+03 
       1.897459213364e-01       1.665105980375e+03 
       1.960912295018e-01       1.585091353711e+03 
       2.026487649355e-01       1.505773727040e+03 
       2.094257310026e-01       1.432213908371e+03 
       2.164297038531e-01       1.367196750085e+03 
       2.236687099636e-01       1.310558643857e+03 
       2.311513160436e-01       1.259693385217e+03 
       2.388867330502e-01       1.210704846936e+03 
       2.468849364847e-01       1.160364245531e+03 
       2.551568057328e-01       1.108165765081e+03 
       2.637142859807e-01       1.056393028299e+03 
       2.725705772680e-01       1.007948371418e+03 
       2.817403565927e-01       9.645560590143e+02 
       2.912400407831e-01       9.253871162685e+02 
       3.010881002516e-01       8.878371387333e+02 
       3.113054369764e-01       8.502651394405e+02 
       3.219158444565e-01       8.127969346032e+02 
       3.329465734387e-01       7.770213629985e+02 
       3.444290356733e-01       7.439892703858e+02 
       3.563996899385e-01       7.131393132337e+02 
       3.689011718319e-01       6.832338550217e+02 
       3.819837541218e-01       6.537592512162e+02 
       3.957072622341e-01       6.254195881393e+02 
       4.101436270680e-01       5.985797628602e+02 
       4.253803472232e-01       5.728391420204e+02 
       4.415252765316e-01       5.477521200393e+02 
       4.587133893846e-01       5.233109779205e+02 
       4.771165779534e-01       4.996892248895e+02 
       4.969582414529e-01       4.766582505515e+02 
       5.185357191388e-01       4.539325129626e+02 
       5.422560899727e-01       4.315247973914e+02 
       5.686958387470e-01       4.091707444110e+02 
       5.987055106946e-01       3.866125335705e+02 
       6.336046713828e-01       3.635243210562e+02 
       6.755715732367e-01       3.393743819499e+02 
       7.284856830161e-01       3.133708888325e+02 
       7.998866886190e-01       2.842169540571e+02 
       9.055169372176e-01       2.499275148588e+02 
       1.075685787951e+00       2.088207939453e+02 
       1.337337065677e+00       1.649093078807e+02 
       1.682646059655e+00       1.259462452615e+02 
       2.118314269814e+00       9.322676021709e+01 
       2.666799639102e+00       6.647565266996e+01 
       3.357301833822e+00       4.557493682666e+01 
       4.226592593662e+00       3.013635334844e+01 
       5.320964821462e+00       1.933218443029e+01 
       6.698697829001e+00       1.210518658516e+01 
       8.433160922860e+00       7.439809443492e+00 
       1.061672058754e+01       4.508628068296e+00 
