# Matter power spectrum P(k) at redshift z=2.5
# for k=9.35944e-06 to 11.7986 h/Mpc,
# number of wavenumbers equal to 123
#    1:k (h/Mpc)              2:P (Mpc/h)^3        
       9.359435543475e-06       1.154318735017e+01 
       1.178283124573e-05       1.435207471650e+01 
       1.483370567813e-05       1.784444326918e+01 
       1.867452902928e-05       2.218657832373e+01 
       2.350983914824e-05       2.758519904541e+01 
       2.959713393092e-05       3.429725925002e+01 
       3.726058402191e-05       4.264212326689e+01 
       4.690829608347e-05       5.301661826382e+01 
       5.905404596345e-05       6.591365597601e+01 
       7.434463913264e-05       8.194514539263e+01 
       9.359435543475e-05       1.018700359186e+02 
       1.178283124573e-04       1.266283023791e+02 
       1.483370567813e-04       1.573815019858e+02 
       1.867452902928e-04       1.955599018149e+02 
       2.350983914824e-04       2.429148029045e+02 
       2.959713393092e-04       3.015718751464e+02 
       3.726058402191e-04       3.740762587759e+02 
       4.690829608347e-04       4.634122182337e+02 
       5.905404596345e-04       5.729702253704e+02 
       7.434463913264e-04       7.064281547222e+02 
       9.359435543475e-04       8.675222534568e+02 
       1.178283124573e-03       1.059707348528e+03 
       1.483370567813e-03       1.285678551605e+03 
       1.867452902928e-03       1.546561490776e+03 
       2.350983914824e-03       1.840618047799e+03 
       2.959713393092e-03       2.161921489500e+03 
       3.726058402191e-03       2.499155643058e+03 
       4.690829608347e-03       2.834586162964e+03 
       5.905404596345e-03       3.143820587359e+03 
       7.434463913264e-03       3.396772444689e+03 
       9.359435543475e-03       3.558978147683e+03 
       1.178283124573e-02       3.595834027712e+03 
       1.483370567813e-02       3.476731560342e+03 
       1.867452902800e-02       3.184342577193e+03 
       2.350983597288e-02       2.730619982200e+03 
       2.959597501697e-02       2.177278591450e+03 
       3.717255952314e-02       1.643993245687e+03 
       4.525550178284e-02       1.284764651901e+03 
       5.124544706636e-02       1.119562817533e+03 
       5.582497264064e-02       1.026577755538e+03 
       5.974964102087e-02       9.584976762837e+02 
       6.332677669318e-02       9.002243242624e+02 
       6.670402739888e-02       8.458146114446e+02 
       6.996401203897e-02       7.928253719317e+02 
       7.315829663511e-02       7.404896553717e+02 
       7.632180189027e-02       6.889579096225e+02 
       7.947974635808e-02       6.388786183833e+02 
       8.265133018850e-02       5.911086509918e+02 
       8.585183986194e-02       5.465401760360e+02 
       8.909392327229e-02       5.059362654658e+02 
       9.238839958169e-02       4.698378725526e+02 
       9.574479389598e-02       4.384864670695e+02 
       9.917170173139e-02       4.118071779402e+02 
       1.026770441053e-01       3.894011313126e+02 
       1.062682499757e-01       3.705952134988e+02 
       1.099523889978e-01       3.544676103903e+02 
       1.137362694238e-01       3.399687666653e+02 
       1.176265109875e-01       3.260287767999e+02 
       1.216295994950e-01       3.117067615046e+02 
       1.257519278329e-01       2.963396711752e+02 
       1.299998267969e-01       2.796564841622e+02 
       1.343795882778e-01       2.618441859046e+02 
       1.388974827655e-01       2.434832314157e+02 
       1.435597727500e-01       2.254111763322e+02 
       1.483727233406e-01       2.085080792147e+02 
       1.533426112620e-01       1.934848391946e+02 
       1.584757332759e-01       1.806868558574e+02 
       1.637784150119e-01       1.700523828900e+02 
       1.692570211446e-01       1.611257447342e+02 
       1.749179678346e-01       1.531956846008e+02 
       1.807677383248e-01       1.455054798975e+02 
       1.868129025812e-01       1.374785955858e+02 
       1.930601418526e-01       1.289305842189e+02 
       1.995162790268e-01       1.199846880577e+02 
       2.061883156638e-01       1.112207771482e+02 
       2.130834766118e-01       1.031895423557e+02 
       2.202092631495e-01       9.616751281555e+01 
       2.275735156777e-01       9.014302322497e+01 
       2.351844870976e-01       8.479538851837e+01 
       2.430509281975e-01       7.969365036599e+01 
       2.511821866198e-01       7.461814978327e+01 
       2.595883213423e-01       6.959926315441e+01 
       2.682802350927e-01       6.472603377225e+01 
       2.772698277661e-01       6.015573062615e+01 
       2.865701747843e-01       5.605735474043e+01 
       2.961957354792e-01       5.236503990605e+01 
       3.061625981004e-01       4.890311034891e+01 
       3.164887700566e-01       4.558959201875e+01 
       3.271945246887e-01       4.238570350124e+01 
       3.383028194942e-01       3.936635085782e+01 
       3.498398056536e-01       3.658714344875e+01 
       3.618354555193e-01       3.400582225329e+01 
       3.743243442389e-01       3.159853696011e+01 
       3.873466352041e-01       2.929205362534e+01 
       4.009493385050e-01       2.712059002172e+01 
       4.151879402114e-01       2.509212328771e+01 
       4.301285431659e-01       2.320082401966e+01 
       4.458507255107e-01       2.139857310506e+01 
       4.624514256927e-01       1.970688821810e+01 
       4.800503272100e-01       1.811131632910e+01 
       4.987974879456e-01       1.659922407524e+01 
       5.188844216725e-01       1.517201906880e+01 
       5.405606563327e-01       1.381463782897e+01 
       5.641592954333e-01       1.252233699545e+01 
       5.901379982097e-01       1.128554937916e+01 
       6.191476494501e-01       1.009702325345e+01 
       6.521535754197e-01       8.945768193151e+00 
       6.906630528721e-01       7.819902194629e+00 
       7.371839693657e-01       6.706663688385e+00 
       7.962255773212e-01       5.586761588388e+00 
       8.766393793671e-01       4.440547329870e+00 
       9.969679077222e-01       3.257798381238e+00 
       1.191661167987e+00       2.109872231014e+00 
       1.485897812732e+00       1.223788687782e+00 
       1.869953737606e+00       6.885172917329e-01 
       2.354125410506e+00       3.842550753563e-01 
       2.963668289766e+00       2.130604373591e-01 
       3.731037322113e+00       1.174445263451e-01 
       4.697097697160e+00       6.439476219637e-02 
       5.913295652635e+00       3.513852440463e-02 
       7.444398164554e+00       1.909050233957e-02 
       9.371942024871e+00       1.033026634004e-02 
       1.179857597297e+01       5.569520288331e-03 
