# Matter power spectrum P(k) at redshift z=1.5
# for k=1.02093e-05 to 10.2234 h/Mpc,
# number of wavenumbers equal to 122
#    1:k (h/Mpc)              2:P (Mpc/h)^3        
       1.020932608477e-05       1.947885204745e+01 
       1.285278004541e-05       2.415866612876e+01 
       1.618069141137e-05       2.996279301711e+01 
       2.037028359817e-05       3.716133059896e+01 
       2.564466766719e-05       4.608924354267e+01 
       3.228472380324e-05       5.716192951512e+01 
       4.064405920865e-05       7.089451939464e+01 
       5.116783897624e-05       8.792572294456e+01 
       6.441649275378e-05       1.090474003945e+02 
       8.109555966639e-05       1.352410291857e+02 
       1.020932608477e-04       1.677226810474e+02 
       1.285278004541e-04       2.079982046105e+02 
       1.618069141137e-04       2.579305939015e+02 
       2.037028359817e-04       3.198214001423e+02 
       2.564466766719e-04       3.965076871472e+02 
       3.228472380324e-04       4.914747689264e+02 
       4.064405920866e-04       6.089824635184e+02 
       5.116783897624e-04       7.541982965281e+02 
       6.441649275378e-04       9.333251998296e+02 
       8.109555966639e-04       1.153705359228e+03 
       1.020932608477e-03       1.423876695158e+03 
       1.285278004541e-03       1.753540954928e+03 
       1.618069141137e-03       2.153254094867e+03 
       2.037028359817e-03       2.633982334831e+03 
       2.564466766719e-03       3.205801638268e+03 
       3.228472380324e-03       3.876130220845e+03 
       4.064405920866e-03       4.647017544770e+03 
       5.116783897624e-03       5.498457235355e+03 
       6.441649275378e-03       6.428326807164e+03 
       8.109555966639e-03       7.385129367616e+03 
       1.020932608477e-02       8.297671366516e+03 
       1.285278004541e-02       9.062440524558e+03 
       1.618069140978e-02       9.545630343543e+03 
       2.037027997882e-02       9.608165401612e+03 
       2.564343922001e-02       9.170150253731e+03 
       3.219683038482e-02       8.319590060954e+03 
       3.909102670032e-02       7.459148099739e+03 
       4.415802721356e-02       6.944690827474e+03 
       4.805513143586e-02       6.613376956425e+03 
       5.140649661330e-02       6.359114759146e+03 
       5.446685502064e-02       6.140378153321e+03 
       5.735950435687e-02       5.937488279899e+03 
       6.015380899292e-02       5.739717084285e+03 
       6.289323172113e-02       5.541320840370e+03 
       6.560729438660e-02       5.339549886116e+03 
       6.831736854385e-02       5.133806827859e+03 
       7.103975854801e-02       4.925166613349e+03 
       7.378746794800e-02       4.715876164110e+03 
       7.657127195244e-02       4.509038451285e+03 
       7.940039981529e-02       4.308036241450e+03 
       8.228298601963e-02       4.116343051517e+03 
       8.522637820683e-02       3.937028650746e+03 
       8.823735291329e-02       3.772226558935e+03 
       9.132226998953e-02       3.623027680370e+03 
       9.448718503982e-02       3.489251995100e+03 
       9.773793237787e-02       3.369279351970e+03 
       1.010801868069e-01       3.260394856545e+03 
       1.045195099007e-01       3.158692800906e+03 
       1.080613847724e-01       3.059794021733e+03 
       1.117112422126e-01       2.959463721097e+03 
       1.154744803483e-01       2.854247153096e+03 
       1.193564794902e-01       2.742364268471e+03 
       1.233626135089e-01       2.624028704529e+03 
       1.274982588703e-01       2.501635095104e+03 
       1.317688023160e-01       2.379188538701e+03 
       1.361796480891e-01       2.261436163624e+03 
       1.407362255435e-01       2.152703778063e+03 
       1.454439979446e-01       2.055723621492e+03 
       1.503084732428e-01       1.970987501019e+03 
       1.553352175890e-01       1.896365076235e+03 
       1.605298723507e-01       1.827709991002e+03 
       1.658981753825e-01       1.760388199293e+03 
       1.714459873009e-01       1.690477114963e+03 
       1.771793235226e-01       1.615915199844e+03 
       1.831043928412e-01       1.538028840102e+03 
       1.892276433577e-01       1.460778996674e+03 
       1.955558166427e-01       1.388604649293e+03 
       2.020960111150e-01       1.324112753832e+03 
       2.088557557748e-01       1.267453287272e+03 
       2.158430956555e-01       1.216422130536e+03 
       2.230666906652e-01       1.167387885693e+03 
       2.305359299165e-01       1.117296575071e+03 
       2.382610642055e-01       1.065665727930e+03 
       2.462533600555e-01       1.014388848511e+03 
       2.545252797350e-01       9.662154565092e+02 
       2.630906929776e-01       9.229119551576e+02 
       2.719651278744e-01       8.836940474827e+02 
       2.811660707486e-01       8.462268185957e+02 
       2.907133279669e-01       8.088499827890e+02 
       3.006294669333e-01       7.715661137911e+02 
       3.109403594311e-01       7.359340118489e+02 
       3.216758587691e-01       7.029758453410e+02 
       3.328706539525e-01       6.722842068082e+02 
       3.445653611043e-01       6.425499064830e+02 
       3.568079373409e-01       6.132867130003e+02 
       3.696555397430e-01       5.850989012979e+02 
       3.831770093418e-01       5.584747573066e+02 
       3.974562497443e-01       5.330002093011e+02 
       4.125969141264e-01       5.081775940084e+02 
       4.287290525143e-01       4.840149218333e+02 
       4.460187776921e-01       4.607287473691e+02 
       4.646827267939e-01       4.380545297985e+02 
       4.850104191053e-01       4.157165490823e+02 
       5.074001621505e-01       3.937520904287e+02 
       5.324193410296e-01       3.718875388324e+02 
       5.609110957942e-01       3.498805126569e+02 
       5.941951068335e-01       3.274101762675e+02 
       6.344736881077e-01       3.039675955029e+02 
       6.857208204487e-01       2.787856583466e+02 
       7.557658539584e-01       2.506463844064e+02 
       8.610223260191e-01       2.177984489534e+02 
       1.031516588260e+00       1.794185930698e+02 
       1.287441072124e+00       1.405976311307e+02 
       1.620295674882e+00       1.073574427335e+02 
       2.039826716156e+00       7.981243334894e+01 
       2.567989681038e+00       5.737979017913e+01 
       3.232907466683e+00       3.974695504875e+01 
       4.069989363786e+00       2.654954615387e+01 
       5.123813035802e+00       1.717752789698e+01 
       6.450498436053e+00       1.082760276255e+01 
       8.120696399886e+00       6.686396964755e+00 
       1.022335105928e+01       4.064701457145e+00 
