# Matter power spectrum P(k) at redshift z=0
# for k=1.3164e-05 to 0.169391 h/Mpc,
# number of wavenumbers equal to 62
#    1:k (h/Mpc)              2:P (Mpc/h)^3        
       1.316399585106e-05       2.588134988970e+01 
       1.657248889766e-05       3.214375234515e+01 
       2.086352740994e-05       3.992140446247e+01 
       2.626562483603e-05       4.958091869670e+01 
       3.306646256273e-05       6.157758072700e+01 
       4.162820999836e-05       7.647677249557e+01 
       5.240681141444e-05       9.498055129021e+01 
       6.597626664075e-05       1.179606027388e+02 
       8.305919864935e-05       1.464990387685e+02 
       1.045653358629e-04       1.819388543337e+02 
       1.316399585106e-04       2.259461231986e+02 
       1.657248889766e-04       2.805863865916e+02 
       2.086352740994e-04       3.484178509505e+02 
       2.626562483603e-04       4.326039645509e+02 
       3.306646256273e-04       5.370473499354e+02 
       4.162820999836e-04       6.665455879482e+02 
       5.240681141444e-04       8.269666302386e+02 
       6.597626664075e-04       1.025437765979e+03 
       8.305919864935e-04       1.270537270952e+03 
       1.045653358629e-03       1.572469235978e+03 
       1.316399585106e-03       1.943175747479e+03 
       1.657248889766e-03       2.396173823172e+03 
       2.086352740994e-03       2.946397889082e+03 
       2.626562483603e-03       3.609302608150e+03 
       3.306646256273e-03       4.399248734169e+03 
       4.162820999836e-03       5.327012181989e+03 
       5.240681141444e-03       6.396045991938e+03 
       6.597626664075e-03       7.597061161984e+03 
       8.305919864935e-03       8.900101535606e+03 
       1.045653358629e-02       1.024612471580e+04 
       1.316399585106e-02       1.153538159973e+04 
       1.657248889766e-02       1.261645788183e+04 
       2.086352740991e-02       1.328485690765e+04 
       2.626562467859e-02       1.331129567177e+04 
       3.306633368190e-02       1.252756739680e+04 
       4.160928414529e-02       1.099870008106e+04 
       5.174270114928e-02       9.246313324536e+03 
       6.042663006572e-02       8.131166088539e+03 
       6.670094245753e-02       7.555662496990e+03 
       7.185237092496e-02       7.190083014269e+03 
       7.644121358872e-02       6.915147281429e+03 
       8.071533827496e-02       6.679578278982e+03 
       8.480514530803e-02       6.456697370574e+03 
       8.878848552442e-02       6.231693847696e+03 
       9.271633005164e-02       5.995813679003e+03 
       9.662450901013e-02       5.745460344506e+03 
       1.005396974961e-01       5.480782910906e+03 
       1.044827320276e-01       5.204594583747e+03 
       1.084705710713e-01       4.922193742120e+03 
       1.125175157415e-01       4.640317580152e+03 
       1.166360026603e-01       4.366438317479e+03 
       1.208371371684e-01       4.107846192273e+03 
       1.251310623840e-01       3.870861978215e+03 
       1.295272207660e-01       3.660463532385e+03 
       1.340345430815e-01       3.478887768899e+03 
       1.386615869977e-01       3.326271755850e+03 
       1.434166398713e-01       3.200010947146e+03 
       1.483077955623e-01       3.094907118668e+03 
       1.533430120809e-01       3.003536518248e+03 
       1.585301549165e-01       2.917095338673e+03 
       1.638770296152e-01       2.826580745045e+03 
       1.693914063137e-01       2.724323856445e+03 
