# Matter power spectrum P(k) at redshift z=0
# for k=1.3739e-05 to 0.150015 h/Mpc,
# number of wavenumbers equal to 60
#    1:k (h/Mpc)              2:P (Mpc/h)^3        
       1.373899317308e-05       2.235117584558e+01 
       1.729636763806e-05       2.800206310272e+01 
       2.177483675129e-05       3.508161378381e+01 
       2.741289532387e-05       4.395098167611e+01 
       3.451079053407e-05       5.506266221258e+01 
       4.344651118445e-05       6.898346469178e+01 
       5.469591698390e-05       8.642342796425e+01 
       6.885807981242e-05       1.082719508981e+02 
       8.668718648320e-05       1.356429314537e+02 
       1.091327019406e-04       1.699312592136e+02 
       1.373899317308e-04       2.128831544645e+02 
       1.729636763806e-04       2.666837540892e+02 
       2.177483675129e-04       3.340655901174e+02 
       2.741289532387e-04       4.184421876519e+02 
       3.451079053407e-04       5.240710595483e+02 
       4.344651118445e-04       6.562499570290e+02 
       5.469591698390e-04       8.215487989157e+02 
       6.885807981242e-04       1.028077275477e+03 
       8.668718648320e-04       1.285784377509e+03 
       1.091327019406e-03       1.606778315866e+03 
       1.373899317308e-03       2.005632643500e+03 
       1.729636763806e-03       2.499595606374e+03 
       2.177483675129e-03       3.108550519392e+03 
       2.741289532387e-03       3.854573990879e+03 
       3.451079053407e-03       4.761161488674e+03 
       4.344651118445e-03       5.850885678699e+03 
       5.469591698390e-03       7.141989319054e+03 
       6.885807981242e-03       8.642880383345e+03 
       8.668718648320e-03       1.034347682434e+04 
       1.091327019406e-02       1.220483587719e+04 
       1.373899317308e-02       1.414443437786e+04 
       1.729636763806e-02       1.602086057986e+04 
       2.177483674895e-02       1.762769161561e+04 
       2.741289010184e-02       1.871014771506e+04 
       3.450905057919e-02       1.904027382037e+04 
       4.332390324850e-02       1.856827599042e+04 
       5.256303639859e-02       1.769293298333e+04 
       5.934037167946e-02       1.701916341664e+04 
       6.456085633811e-02       1.651270846330e+04 
       6.905417315511e-02       1.608117740982e+04 
       7.315927411322e-02       1.568305024563e+04 
       7.704053297998e-02       1.529707546829e+04 
       8.079054835777e-02       1.491177182566e+04 
       8.446739888549e-02       1.452090374549e+04 
       8.811056432033e-02       1.412167419823e+04 
       9.174864266588e-02       1.371444240866e+04 
       9.540346263655e-02       1.330085194550e+04 
       9.909244145549e-02       1.288451262645e+04 
       1.028300171930e-01       1.246996348285e+04 
       1.066285605461e-01       1.206196608747e+04 
       1.104989779211e-01       1.166552926236e+04 
       1.144511231594e-01       1.128476542086e+04 
       1.184940860698e-01       1.092241442887e+04 
       1.226363989939e-01       1.057980212879e+04 
       1.268861872421e-01       1.025636138502e+04 
       1.312512800945e-01       9.949362877892e+03 
       1.357392934740e-01       9.654493242753e+03 
       1.403576918829e-01       9.366139814045e+03 
       1.451138349320e-01       9.078616513403e+03 
       1.500150123208e-01       8.786388365788e+03 
