# Matter power spectrum P(k) at redshift z=0
# for k=1.13683e-05 to 0.160859 h/Mpc,
# number of wavenumbers equal to 66
#    1:k (h/Mpc)              2:P (Mpc/h)^3        
       1.136828943383e-05       2.706785340722e+01 
       1.431182845688e-05       3.385037227475e+01 
       1.801752453361e-05       4.233234144886e+01 
       2.268271949299e-05       5.293964169682e+01 
       2.855585197832e-05       6.620460475434e+01 
       3.594968771094e-05       8.279311990214e+01 
       4.525797540536e-05       1.035375631879e+02 
       5.697641532417e-05       1.294785961803e+02 
       7.172905712453e-05       1.619169105754e+02 
       9.030153277811e-05       2.024777148368e+02 
       1.136828943383e-04       2.531907066112e+02 
       1.431182845688e-04       3.165886733686e+02 
       1.801752453361e-04       3.958284039240e+02 
       2.268271949299e-04       4.948369576141e+02 
       2.855585197832e-04       6.184855635631e+02 
       3.594968771094e-04       7.727907998187e+02 
       4.525797540536e-04       9.651382423363e+02 
       5.697641532417e-04       1.204517462274e+03 
       7.172905712453e-04       1.501749879329e+03 
       9.030153277811e-04       1.869678179506e+03 
       1.136828943383e-03       2.323246326506e+03 
       1.431182845688e-03       2.879312845876e+03 
       1.801752453361e-03       3.555997544355e+03 
       2.268271949299e-03       4.371372612681e+03 
       2.855585197832e-03       5.341145062970e+03 
       3.594968771094e-03       6.475208505872e+03 
       4.525797540536e-03       7.772542390700e+03 
       5.697641532417e-03       9.214564842752e+03 
       7.172905712453e-03       1.075674574088e+04 
       9.030153277811e-03       1.232098148386e+04 
       1.136828943383e-02       1.378560526201e+04 
       1.431182845688e-02       1.498340136341e+04 
       1.801752453349e-02       1.570714093203e+04 
       2.268271896306e-02       1.574922747068e+04 
       2.855554601103e-02       1.498808349193e+04 
       3.591587474245e-02       1.353278147843e+04 
       4.434296962927e-02       1.190932726811e+04 
       5.106296513059e-02       1.085846206993e+04 
       5.602003820892e-02       1.021454256473e+04 
       6.017023781445e-02       9.733023020306e+03 
       6.390566772552e-02       9.324782332893e+03 
       6.740599755571e-02       8.951478700683e+03 
       7.076834317097e-02       8.593801900677e+03 
       7.405181972597e-02       8.241983199289e+03 
       7.729570199088e-02       7.892403629575e+03 
       8.052792093672e-02       7.544187603418e+03 
       8.376947171706e-02       7.199309306692e+03 
       8.703688861897e-02       6.861268327142e+03 
       9.034372369971e-02       6.534083389650e+03 
       9.370147536227e-02       6.222093301143e+03 
       9.712019573336e-02       5.928974270428e+03 
       1.006089015149e-01       5.657528893303e+03 
       1.041758597207e-01       5.409103178008e+03 
       1.078287909821e-01       5.183350336817e+03 
       1.115750168860e-01       4.978168243653e+03 
       1.154215682933e-01       4.789800029221e+03 
       1.193752658106e-01       4.613364361193e+03 
       1.234427799886e-01       4.443152965863e+03 
       1.276306765197e-01       4.273701680152e+03 
       1.319454502142e-01       4.100616413460e+03 
       1.363935505470e-01       3.921335285226e+03 
       1.409814009135e-01       3.735688806589e+03 
       1.457154132954e-01       3.546177641087e+03 
       1.506019997496e-01       3.357396206056e+03 
       1.556475819402e-01       3.175035267488e+03 
       1.608585998139e-01       3.004292045443e+03 
