# Matter power spectrum P(k) at redshift z=0
# for k=1.33963e-05 to 0.154901 h/Mpc,
# number of wavenumbers equal to 61
#    1:k (h/Mpc)              2:P (Mpc/h)^3        
       1.339633114551e-05       1.962470999904e+01 
       1.686498170389e-05       2.455912526565e+01 
       2.123175403647e-05       3.073423041094e+01 
       2.672919469348e-05       3.846195028840e+01 
       3.365006243641e-05       4.813264772907e+01 
       4.236291870966e-05       6.023477474102e+01 
       5.333175488136e-05       7.537951656563e+01 
       6.714070147572e-05       9.433158772599e+01 
       8.452513525347e-05       1.180476447284e+02 
       1.064108407059e-04       1.477242461772e+02 
       1.339633114551e-04       1.848575516543e+02 
       1.686498170389e-04       2.313174197656e+02 
       2.123175403647e-04       2.894389855521e+02 
       2.672919469348e-04       3.621350226668e+02 
       3.365006243641e-04       4.530323794704e+02 
       4.236291870966e-04       5.666350978464e+02 
       5.333175488136e-04       7.085152880561e+02 
       6.714070147572e-04       8.855303106462e+02 
       8.452513525347e-04       1.106061080392e+03 
       1.064108407059e-03       1.380259239403e+03 
       1.339633114551e-03       1.720269692977e+03 
       1.686498170389e-03       2.140349978437e+03 
       2.123175403647e-03       2.656699019349e+03 
       2.672919469348e-03       3.287124782251e+03 
       3.365006243641e-03       4.049977456948e+03 
       4.236291870966e-03       4.962095140315e+03 
       5.333175488136e-03       6.035646181819e+03 
       6.714070147572e-03       7.273213597203e+03 
       8.452513525347e-03       8.660274478200e+03 
       1.064108407059e-02       1.015634694560e+04 
       1.339633114551e-02       1.168301563795e+04 
       1.686498170389e-02       1.311053618849e+04 
       2.123175403569e-02       1.425616140267e+04 
       2.672919242400e-02       1.489937823375e+04 
       3.364912636653e-02       1.485678345120e+04 
       4.228431463631e-02       1.412256490586e+04 
       5.169976616552e-02       1.310434246733e+04 
       5.879115384885e-02       1.240036711225e+04 
       6.415889870044e-02       1.192521449703e+04 
       6.873172609277e-02       1.154838249036e+04 
       7.288614426220e-02       1.121623669812e+04 
       7.680077009712e-02       1.090255841240e+04 
       8.057464512078e-02       1.059324929752e+04 
       8.426917746493e-02       1.028044120721e+04 
       8.792574212197e-02       9.960307905048e+03 
       9.157409658074e-02       9.632005615730e+03 
       9.523681932558e-02       9.296968340431e+03 
       9.893183405991e-02       8.958274633250e+03 
       1.026739332605e-01       8.620397843447e+03 
       1.064757429290e-01       8.288243673765e+03 
       1.103483579513e-01       7.966965150598e+03 
       1.143017743069e-01       7.661266201137e+03 
       1.183451910609e-01       7.374663286802e+03 
       1.224872260503e-01       7.109154511661e+03 
       1.267360726643e-01       6.864896059614e+03 
       1.310996153649e-01       6.639973925894e+03 
       1.355855156440e-01       6.430549078184e+03 
       1.402012763838e-01       6.231254941187e+03 
       1.449542901990e-01       6.035766922231e+03 
       1.498518757781e-01       5.837852117039e+03 
       1.549013052124e-01       5.632507707226e+03 
