# Matter power spectrum P(k) at redshift z=0
# for k=1.24601e-05 to 0.161845 h/Mpc,
# number of wavenumbers equal to 64
#    1:k (h/Mpc)              2:P (Mpc/h)^3        
       1.246011309959e-05       2.874067161421e+01 
       1.568635301490e-05       3.590263016774e+01 
       1.974794842884e-05       4.484928617919e+01 
       2.486119410786e-05       5.602530939016e+01 
       3.129838902994e-05       6.998619210338e+01 
       3.940233729801e-05       8.742571735910e+01 
       4.960460370855e-05       1.092104504441e+02 
       6.244849615067e-05       1.364226022180e+02 
       7.861799873241e-05       1.704134370384e+02 
       9.897419642863e-05       2.128698128200e+02 
       1.246011309959e-04       2.658966253629e+02 
       1.568635301490e-04       3.321187811803e+02 
       1.974794842884e-04       4.148064660135e+02 
       2.486119410786e-04       5.180276160623e+02 
       3.129838902994e-04       6.468309065690e+02 
       3.940233729801e-04       8.074608226717e+02 
       4.960460370855e-04       1.007602997096e+03 
       6.244849615067e-04       1.256653005144e+03 
       7.861799873241e-04       1.565995375171e+03 
       9.897419642863e-04       1.949267762588e+03 
       1.246011309959e-03       2.422549696231e+03 
       1.568635301490e-03       3.004340422922e+03 
       1.974794842884e-03       3.715144286732e+03 
       2.486119410786e-03       4.576361971478e+03 
       3.129838902994e-03       5.608613123083e+03 
       3.940233729801e-03       6.828254698390e+03 
       4.960460370855e-03       8.242566272180e+03 
       6.244849615067e-03       9.842788327020e+03 
       7.861799873241e-03       1.159440782568e+04 
       9.897419642863e-03       1.342686231376e+04 
       1.246011309959e-02       1.522060412956e+04 
       1.568635301490e-02       1.679680916399e+04 
       1.974794842850e-02       1.791917020088e+04 
       2.486119294181e-02       1.832910927766e+04 
       3.129782724464e-02       1.784246346183e+04 
       3.934877362935e-02       1.652070832881e+04 
       4.834521670544e-02       1.493111304462e+04 
       5.528792105841e-02       1.387817782365e+04 
       6.047865338577e-02       1.320104042654e+04 
       6.486610498768e-02       1.267945457608e+04 
       6.883526877344e-02       1.222901605140e+04 
       7.256587659247e-02       1.181112295054e+04 
       7.615642843372e-02       1.140545894741e+04 
       7.966748144731e-02       1.100210321040e+04 
       8.313957392018e-02       1.059573127756e+04 
       8.660171034307e-02       1.018599796473e+04 
       9.007580269340e-02       9.774655965810e+03 
       9.357918135451e-02       9.365648303137e+03 
       9.712610350816e-02       8.964058099379e+03 
       1.007287046308e-01       8.575555285226e+03 
       1.043976231499e-01       8.205430298634e+03 
       1.081424242657e-01       7.858105307433e+03 
       1.119718954469e-01       7.536495783624e+03 
       1.158942571081e-01       7.241474015019e+03 
       1.199173155377e-01       6.971786937440e+03 
       1.240485754631e-01       6.723950769151e+03 
       1.282953237487e-01       6.492494403054e+03 
       1.326646920393e-01       6.270836722417e+03 
       1.371637038035e-01       6.051796274653e+03 
       1.417993096990e-01       5.829031501110e+03 
       1.465784141651e-01       5.598049887816e+03 
       1.515078954784e-01       5.357361581235e+03 
       1.565946210562e-01       5.108730990352e+03 
       1.618454594949e-01       4.857273340497e+03 
