# Matter power spectrum P(k) at redshift z=0
# for k=1.83052e-05 to 0.188476 h/Mpc,
# number of wavenumbers equal to 58
#    1:k (h/Mpc)              2:P (Mpc/h)^3        
       1.830524228751e-05       1.019920402510e+01 
       2.304493468480e-05       1.269334041319e+01 
       2.901185388783e-05       1.579739625398e+01 
       3.652376010265e-05       1.966051307023e+01 
       4.598068972750e-05       2.446829762702e+01 
       5.788625874977e-05       3.045173443668e+01 
       7.287448213378e-05       3.789826613504e+01 
       9.174353742956e-05       4.716556464582e+01 
       1.154982706380e-04       5.869866558923e+01 
       1.454037079244e-04       7.305121492040e+01 
       1.830524228751e-04       9.091182620794e+01 
       2.304493468480e-04       1.131366757040e+02 
       2.901185388783e-04       1.407896916348e+02 
       3.652376010265e-04       1.751918371268e+02 
       4.598068972750e-04       2.179810840983e+02 
       5.788625874977e-04       2.711845789738e+02 
       7.287448213378e-04       3.373041518805e+02 
       9.174353742956e-04       4.194156574220e+02 
       1.154982706380e-03       5.212815346293e+02 
       1.454037079244e-03       6.474735049346e+02 
       1.830524228751e-03       8.034949257771e+02 
       2.304493468480e-03       9.958772257837e+02 
       2.901185388783e-03       1.232213690508e+03 
       3.652376010265e-03       1.521044631773e+03 
       4.598068972750e-03       1.871621474930e+03 
       5.788625874977e-03       2.293302092901e+03 
       7.287448213378e-03       2.794379754683e+03 
       9.174353742956e-03       3.380347567465e+03 
       1.154982706380e-02       4.050890649974e+03 
       1.454037079244e-02       4.796344297007e+03 
       1.830524228751e-02       5.592333597052e+03 
       2.304493468480e-02       6.394013090282e+03 
       2.901185388562e-02       7.132067367179e+03 
       3.652375473134e-02       7.715360763940e+03 
       4.597877298192e-02       8.050363643513e+03 
       5.774334322946e-02       8.084589174638e+03 
       7.024086854058e-02       7.894597409387e+03 
       7.947757617122e-02       7.692685255149e+03 
       8.655243974564e-02       7.521043249229e+03 
       9.262214829318e-02       7.364548021627e+03 
       9.815762767384e-02       7.214288048586e+03 
       1.033856492176e-01       7.065367212592e+03 
       1.084333184185e-01       6.915078275869e+03 
       1.133800635971e-01       6.762015176143e+03 
       1.182797241318e-01       6.605714505527e+03 
       1.231712103111e-01       6.446335997050e+03 
       1.280841651628e-01       6.284577691506e+03 
       1.330422021391e-01       6.121527089047e+03 
       1.380648678985e-01       5.958498148740e+03 
       1.431688896367e-01       5.796889305106e+03 
       1.483689989657e-01       5.637997275689e+03 
       1.536784937313e-01       5.482938607223e+03 
       1.591096313526e-01       5.332401162929e+03 
       1.646739102066e-01       5.186614867495e+03 
       1.703822744270e-01       5.045338707543e+03 
       1.762452649507e-01       4.907578479362e+03 
       1.822731319825e-01       4.772184143333e+03 
       1.884759192352e-01       4.637664120189e+03 
