# Matter power spectrum P(k) at redshift z=0
# for k=1.31019e-05 to 0.166609 h/Mpc,
# number of wavenumbers equal to 63
#    1:k (h/Mpc)              2:P (Mpc/h)^3        
       1.310193201173e-05       3.330183769033e+01 
       1.649435515317e-05       4.143407721410e+01 
       2.076516285349e-05       5.155218217109e+01 
       2.614179119630e-05       6.414101584460e+01 
       3.291056524684e-05       7.980387052252e+01 
       4.143194690575e-05       9.929124978073e+01 
       5.215973081976e-05       1.235367784220e+02 
       6.566521060134e-05       1.537017464150e+02 
       8.266760229684e-05       1.912304195228e+02 
       1.040723452636e-04       2.379185324722e+02 
       1.310193201173e-04       2.959979365043e+02 
       1.649435515317e-04       3.682408140623e+02 
       2.076516285349e-04       4.580871889432e+02 
       2.614179119630e-04       5.697994863196e+02 
       3.291056524684e-04       7.086472410413e+02 
       4.143194690575e-04       8.811232343100e+02 
       5.215973081976e-04       1.095188941432e+03 
       6.566521060134e-04       1.360542150874e+03 
       8.266760229684e-04       1.688893269542e+03 
       1.040723452636e-03       2.094224898810e+03 
       1.310193201173e-03       2.592973774233e+03 
       1.649435515317e-03       3.203999160499e+03 
       2.076516285349e-03       3.948099625382e+03 
       2.614179119630e-03       4.847044424038e+03 
       3.291056524684e-03       5.921708861527e+03 
       4.143194690575e-03       7.188607150781e+03 
       5.215973081976e-03       8.655011930482e+03 
       6.566521060134e-03       1.031184142819e+04 
       8.266760229684e-03       1.212348988689e+04 
       1.040723452636e-02       1.401693605987e+04 
       1.310193201173e-02       1.586752699092e+04 
       1.649435515317e-02       1.748733028102e+04 
       2.076516285328e-02       1.862427066411e+04 
       2.614179038569e-02       1.899893380328e+04 
       3.291013031904e-02       1.840663697957e+04 
       4.138667148330e-02       1.690961278019e+04 
       5.100176381199e-02       1.512046628072e+04 
       5.856415773156e-02       1.395105528662e+04 
       6.417225373086e-02       1.323259624851e+04 
       6.888591392201e-02       1.269876695583e+04 
       7.313736207234e-02       1.224811052468e+04 
       7.712615027791e-02       1.183467484641e+04 
       8.096074867405e-02       1.143437799697e+04 
       8.470745117640e-02       1.103398435304e+04 
       8.841043726323e-02       1.062736437987e+04 
       9.210120304684e-02       1.021242186461e+04 
       9.580347172676e-02       9.791138019135e+03 
       9.953595838883e-02       9.367677086239e+03 
       1.033140254906e-01       8.947925394880e+03 
       1.071507243764e-01       8.538397515694e+03 
       1.110574775403e-01       8.147022032880e+03 
       1.150445406990e-01       7.778879680701e+03 
       1.191213244778e-01       7.438951773076e+03 
       1.232966234826e-01       7.129705059154e+03 
       1.275787824212e-01       6.851076838249e+03 
       1.319758182898e-01       6.600271408977e+03 
       1.364955111809e-01       6.371900938405e+03 
       1.411454722259e-01       6.158626817019e+03 
       1.459331946134e-01       5.951800180380e+03 
       1.508660919406e-01       5.742908787254e+03 
       1.559515270507e-01       5.524954115857e+03 
       1.611968337739e-01       5.293933696413e+03 
       1.666093334979e-01       5.049972957963e+03 
