# Matter power spectrum P(k) at redshift z=0
# for k=1.17528e-05 to 0.177863 h/Mpc,
# number of wavenumbers equal to 67
#    1:k (h/Mpc)              2:P (Mpc/h)^3        
       1.175279718241e-05       3.600988997861e+01 
       1.479589503259e-05       4.461810885443e+01 
       1.862692824677e-05       5.528407481138e+01 
       2.344991331353e-05       6.849963814931e+01 
       2.952169177477e-05       8.487416471290e+01 
       3.716560797441e-05       1.051625478189e+02 
       4.678872832377e-05       1.302998842198e+02 
       5.890351907232e-05       1.614443352743e+02 
       7.415513700425e-05       2.000300033588e+02 
       9.335578638973e-05       2.478318608776e+02 
       1.175279718241e-04       3.070455864596e+02 
       1.479589503259e-04       3.803845671365e+02 
       1.862692824677e-04       4.711970135659e+02 
       2.344991331353e-04       5.836049146883e+02 
       2.952169177477e-04       7.226650449686e+02 
       3.716560797441e-04       8.945485583523e+02 
       4.678872832377e-04       1.106730020167e+03 
       5.890351907232e-04       1.368169369656e+03 
       7.415513700425e-04       1.689462667111e+03 
       9.335578638973e-04       2.082924418030e+03 
       1.175279718241e-03       2.562519652186e+03 
       1.479589503259e-03       3.143468293993e+03 
       1.862692824677e-03       3.841316297191e+03 
       2.344991331353e-03       4.670328267414e+03 
       2.952169177477e-03       5.640842538714e+03 
       3.716560797441e-03       6.755609330213e+03 
       4.678872832377e-03       8.004812792321e+03 
       5.890351907232e-03       9.360007246380e+03 
       7.415513700425e-03       1.076703658402e+04 
       9.335578638973e-03       1.214103540023e+04 
       1.175279718241e-02       1.335987651377e+04 
       1.479589503259e-02       1.426586922022e+04 
       1.862692824675e-02       1.467638021687e+04 
       2.344991315822e-02       1.441995236144e+04 
       2.952156782896e-02       1.341689931227e+04 
       3.714777971955e-02       1.179951480650e+04 
       4.617459406485e-02       1.005148563324e+04 
       5.386796447830e-02       8.907363335579e+03 
       5.943322429475e-02       8.255558788704e+03 
       6.400922957140e-02       7.793646762771e+03 
       6.808866207914e-02       7.414811635217e+03 
       7.189002354399e-02       7.075652929690e+03 
       7.552849419404e-02       6.755404867168e+03 
       7.907293611937e-02       6.443949173034e+03 
       8.256848341965e-02       6.136664053237e+03 
       8.604688989358e-02       5.832792407576e+03 
       8.953181233899e-02       5.533702605351e+03 
       9.304174053335e-02       5.242609666767e+03 
       9.659173063417e-02       4.962856233807e+03 
       1.001944851320e-01       4.698122357673e+03 
       1.038610546522e-01       4.451605665095e+03 
       1.076013101267e-01       4.225524855262e+03 
       1.114242697190e-01       4.020857694072e+03 
       1.153383305917e-01       3.837067621062e+03 
       1.193514363858e-01       3.672093654007e+03 
       1.234712000751e-01       3.522508099599e+03 
       1.277049950936e-01       3.383834466086e+03 
       1.320600234416e-01       3.251043855846e+03 
       1.365433667969e-01       3.119366642905e+03 
       1.411620249343e-01       2.984869600852e+03 
       1.459229446104e-01       2.845233294829e+03 
       1.508330413181e-01       2.700442364856e+03 
       1.558992158103e-01       2.552476551616e+03 
       1.611283669576e-01       2.405322715869e+03 
       1.665274022833e-01       2.263612012370e+03 
       1.721032473784e-01       2.131754121334e+03 
       1.778628553040e-01       2.012736748496e+03 
