# Matter power spectrum P(k) at redshift z=0
# for k=1.65737e-05 to 0.176264 h/Mpc,
# number of wavenumbers equal to 59
#    1:k (h/Mpc)              2:P (Mpc/h)^3        
       1.657372939146e-05       8.076467338249e+00 
       2.086508909911e-05       1.013517228254e+01 
       2.626759088622e-05       1.271863946131e+01 
       3.306893767328e-05       1.596062488669e+01 
       4.163132597793e-05       2.002897299258e+01 
       5.241073420030e-05       2.513429780175e+01 
       6.598120513555e-05       3.154087302712e+01 
       8.306541584595e-05       3.958028199755e+01 
       1.045731628497e-04       4.966852245686e+01 
       1.316498121032e-04       6.232741845408e+01 
       1.657372939146e-04       7.821138804252e+01 
       2.086508909911e-04       9.814083162943e+01 
       2.626759088622e-04       1.231436390366e+02 
       3.306893767328e-04       1.545065233113e+02 
       4.163132597793e-04       1.938380166032e+02 
       5.241073420030e-04       2.431449213741e+02 
       6.598120513555e-04       3.049236785590e+02 
       8.306541584595e-04       3.822674335309e+02 
       1.045731628497e-03       4.789884330150e+02 
       1.316498121032e-03       5.997527914407e+02 
       1.657372939146e-03       7.502168584935e+02 
       2.086508909911e-03       9.371380738849e+02 
       2.626759088622e-03       1.168419742121e+03 
       3.306893767328e-03       1.453013914903e+03 
       4.163132597793e-03       1.800642015307e+03 
       5.241073420030e-03       2.221178082028e+03 
       6.598120513555e-03       2.723397523137e+03 
       8.306541584595e-03       3.313092890587e+03 
       1.045731628497e-02       3.989932043133e+03 
       1.316498121032e-02       4.743592080220e+03 
       1.657372939146e-02       5.548115994294e+03 
       2.086508909911e-02       6.356021940218e+03 
       2.626759088413e-02       7.094155021214e+03 
       3.306893265409e-02       7.667397152623e+03 
       4.162954978715e-02       7.980279993814e+03 
       5.227920574183e-02       7.984336654663e+03 
       6.357428621731e-02       7.769865407041e+03 
       7.191422567382e-02       7.556562457284e+03 
       7.830659866615e-02       7.378994476301e+03 
       8.379296231905e-02       7.218662619130e+03 
       8.879752701171e-02       7.065441299546e+03 
       9.352474410689e-02       6.913969015685e+03 
       9.808927952692e-02       6.761300875617e+03 
       1.025628203338e-01       6.605922819263e+03 
       1.069939754289e-01       6.447389534758e+03 
       1.114178848039e-01       6.285907512203e+03 
       1.158613254243e-01       6.122260610270e+03 
       1.203456319229e-01       5.957680170062e+03 
       1.248884676604e-01       5.793554776669e+03 
       1.295049504509e-01       5.631370618452e+03 
       1.342083962449e-01       5.472530771191e+03 
       1.390108263314e-01       5.318130762359e+03 
       1.439233224806e-01       5.168885701668e+03 
       1.489562810276e-01       5.024881454363e+03 
       1.541195978147e-01       4.885815242357e+03 
       1.594228045997e-01       4.750614549123e+03 
       1.648751706266e-01       4.617842657854e+03 
       1.704857787062e-01       4.486007928447e+03 
       1.762635823691e-01       4.353378133491e+03 
