# Matter power spectrum P(k) at redshift z=0
# for k=1.19463e-05 to 0.125 h/Mpc,
# number of wavenumbers equal to 58
#    1:k (h/Mpc)              2:P (Mpc/h)^3        
       1.194632294393e-05       3.281332888410e+01 
       1.503952953161e-05       4.069676740915e+01 
       1.893364590878e-05       5.047420232293e+01 
       2.383604797247e-05       6.260061188390e+01 
       3.000780650929e-05       7.764028357773e+01 
       3.777759016674e-05       9.629302734753e+01 
       4.755916825726e-05       1.194266451446e+02 
       5.987344548286e-05       1.481172100332e+02 
       7.537620201004e-05       1.836988658583e+02 
       9.489301615497e-05       2.278254088605e+02 
       1.194632294393e-04       2.825462251527e+02 
       1.503952953161e-04       3.503996912315e+02 
       1.893364590878e-04       4.345274609673e+02 
       2.383604797247e-04       5.388133094776e+02 
       3.000780650929e-04       6.680498936373e+02 
       3.777759016674e-04       8.281358093734e+02 
       4.755916825726e-04       1.026303197446e+03 
       5.987344548286e-04       1.271372740798e+03 
       7.537620201004e-04       1.574028623710e+03 
       9.489301615497e-04       1.947097325775e+03 
       1.194632294393e-03       2.405789007638e+03 
       1.503952953161e-03       2.967465971644e+03 
       1.893364590878e-03       3.652262271129e+03 
       2.383604797247e-03       4.481725514676e+03 
       3.000780650929e-03       5.477618575490e+03 
       3.777759016674e-03       6.659385979277e+03 
       4.755916825726e-03       8.040050073905e+03 
       5.987344548286e-03       9.619772339213e+03 
       7.537620201004e-03       1.137597695418e+04 
       9.489301615497e-03       1.325153636733e+04 
       1.194632294393e-02       1.513679836780e+04 
       1.503952953161e-02       1.685314797753e+04 
       1.893364590807e-02       1.814418590938e+04 
       2.383604593434e-02       1.870543133542e+04 
       3.000696741430e-02       1.829174844619e+04 
       3.770723599535e-02       1.693885886638e+04 
       4.610065905901e-02       1.531728081181e+04 
       5.242061297377e-02       1.429056790924e+04 
       5.720514646311e-02       1.364788702159e+04 
       6.128150459633e-02       1.317062159264e+04 
       6.498506371109e-02       1.277048080131e+04 
       6.847495799443e-02       1.240452094537e+04 
       7.183943820471e-02       1.204870439429e+04 
       7.513322743773e-02       1.168855059442e+04 
       7.839319934397e-02       1.131593359232e+04 
       8.164587562546e-02       1.092737131485e+04 
       8.491138065475e-02       1.052313085551e+04 
       8.820569066866e-02       1.010669955606e+04 
       9.154199139799e-02       9.683685749375e+03 
       9.493153779105e-02       9.261855598113e+03 
       9.838422022538e-02       8.849784198564e+03 
       1.019089496909e-01       8.455711605088e+03 
       1.055139269311e-01       8.087115941759e+03 
       1.092068346704e-01       7.749573368693e+03 
       1.129949773445e-01       7.445917662284e+03 
       1.168853840605e-01       7.176173398490e+03 
       1.208848852067e-01       6.936850205197e+03 
       1.250001698166e-01       6.721106811496e+03 
