# Matter power spectrum P(k) at redshift z=0
# for k=1.3775e-05 to 0.137562 h/Mpc,
# number of wavenumbers equal to 58
#    1:k (h/Mpc)              2:P (Mpc/h)^3        
       1.377504465614e-05       2.247896385662e+01 
       1.734175376622e-05       2.797215697243e+01 
       2.183197450137e-05       3.480771323899e+01 
       2.748482748941e-05       4.331364930053e+01 
       3.460134776520e-05       5.389811416223e+01 
       4.356051598394e-05       6.706898051171e+01 
       5.483944052304e-05       8.345813507823e+01 
       6.903876524303e-05       1.038517762479e+02 
       8.691465596335e-05       1.292279385252e+02 
       1.094190690496e-04       1.608031386823e+02 
       1.377504465614e-04       2.000901490267e+02 
       1.734175376622e-04       2.489693974825e+02 
       2.183197450137e-04       3.097769059137e+02 
       2.748482748941e-04       3.854119314631e+02 
       3.460134776520e-04       4.794676213815e+02 
       4.356051598394e-04       5.963875896030e+02 
       5.483944052304e-04       7.416503416973e+02 
       6.903876524303e-04       9.219816615109e+02 
       8.691465596335e-04       1.145592334142e+03 
       1.094190690496e-03       1.422432783691e+03 
       1.377504465614e-03       1.764439170974e+03 
       1.734175376622e-03       2.185709677716e+03 
       2.183197450137e-03       2.702450979835e+03 
       2.748482748941e-03       3.332765410900e+03 
       3.460134776520e-03       4.096029892817e+03 
       4.356051598394e-03       5.011139561744e+03 
       5.483944052304e-03       6.093925446520e+03 
       6.903876524303e-03       7.352899202205e+03 
       8.691465596335e-03       8.782404365525e+03 
       1.094190690496e-02       1.035428003231e+04 
       1.377504465614e-02       1.200574963180e+04 
       1.734175376621e-02       1.362646813104e+04 
       2.183197449515e-02       1.505182203376e+04 
       2.748481657450e-02       1.607566843713e+04 
       3.459835831745e-02       1.650687934456e+04 
       4.338144857561e-02       1.628914511744e+04 
       5.220785654948e-02       1.572567796204e+04 
       5.857898482909e-02       1.525859963763e+04 
       6.356597132482e-02       1.488333561296e+04 
       6.789679281633e-02       1.455030462655e+04 
       7.187295730675e-02       1.423487884149e+04 
       7.564362867995e-02       1.392436535612e+04 
       7.929404488767e-02       1.361109484393e+04 
       8.287822935833e-02       1.329115709279e+04 
       8.643320325470e-02       1.296292679375e+04 
       8.998595994431e-02       1.262657236701e+04 
       9.355721688680e-02       1.228373483149e+04 
       9.716358264105e-02       1.193711218740e+04 
       1.008188811135e-01       1.159014205616e+04 
       1.045349986087e-01       1.124666552976e+04 
       1.083224463310e-01       1.091049088958e+04 
       1.121907456708e-01       1.058465417018e+04 
       1.161486989393e-01       1.027158570955e+04 
       1.202045836192e-01       9.972407569974e+03 
       1.243662940726e-01       9.686715377976e+03 
       1.286414462365e-01       9.412704240903e+03 
       1.330374556652e-01       9.147137465104e+03 
       1.375615960249e-01       8.885946850067e+03 
