# Matter power spectrum P(k) at redshift z=0
# for k=1.17921e-05 to 0.170948 h/Mpc,
# number of wavenumbers equal to 64
#    1:k (h/Mpc)              2:P (Mpc/h)^3        
       1.179210091023e-05       3.632733081264e+01 
       1.484537549433e-05       4.549911492852e+01 
       1.868922045744e-05       5.698649161516e+01 
       2.352833456049e-05       7.137403212900e+01 
       2.962041827540e-05       8.939384679722e+01 
       3.728989727487e-05       1.119627301405e+02 
       4.694519928253e-05       1.402286989474e+02 
       5.910050433851e-05       1.756291055363e+02 
       7.440312676161e-05       2.199631812767e+02 
       9.366798699713e-05       2.754824189651e+02 
       1.179210091023e-04       3.450027800962e+02 
       1.484537549433e-04       4.320433694578e+02 
       1.868922045744e-04       5.409964521472e+02 
       2.352833456049e-04       6.773334074306e+02 
       2.962041827540e-04       8.478496186134e+02 
       3.728989727487e-04       1.060947617123e+03 
       4.694519928253e-04       1.326951237115e+03 
       5.910050433851e-04       1.658434432505e+03 
       7.440312676161e-04       2.070537865394e+03 
       9.366798699713e-04       2.581229226057e+03 
       1.179210091023e-03       3.211409002128e+03 
       1.484537549433e-03       3.984396531221e+03 
       1.868922045744e-03       4.925568201234e+03 
       2.352833456049e-03       6.059917141578e+03 
       2.962041827540e-03       7.408791265690e+03 
       3.728989727487e-03       8.984621026226e+03 
       4.694519928253e-03       1.078365764536e+04 
       5.910050433851e-03       1.277572391610e+04 
       7.440312676161e-03       1.489032199187e+04 
       9.366798699713e-03       1.700292914646e+04 
       1.179210091023e-02       1.891561034087e+04 
       1.484537549433e-02       2.034376371292e+04 
       1.868922045744e-02       2.091585662615e+04 
       2.352833454297e-02       2.023837689253e+04 
       2.962039402806e-02       1.806710061138e+04 
       3.728443281900e-02       1.463823155557e+04 
       4.666729167615e-02       1.099255481501e+04 
       5.566560986647e-02       8.735655715695e+03 
       6.210973105359e-02       7.801302793801e+03 
       6.723313456359e-02       7.343117772795e+03 
       7.171999789810e-02       7.069076132538e+03 
       7.585881072320e-02       6.866651277542e+03 
       7.979511635314e-02       6.680374681403e+03 
       8.361325085958e-02       6.479411626815e+03 
       8.736721764860e-02       6.245765528030e+03 
       9.109432105071e-02       5.971361348051e+03 
       9.482193851400e-02       5.656136020923e+03 
       9.857119766663e-02       5.305836655853e+03 
       1.023591156611e-01       4.931687657582e+03 
       1.061999142056e-01       4.548202539314e+03 
       1.101058647567e-01       4.171317443839e+03 
       1.140878520081e-01       3.816317823160e+03 
       1.181557611167e-01       3.497383651270e+03 
       1.223187505308e-01       3.223586026201e+03 
       1.265854481674e-01       3.001108053504e+03 
       1.309640947677e-01       2.831230147796e+03 
       1.354626499407e-01       2.710465912774e+03 
       1.400888712749e-01       2.631261668357e+03 
       1.448503736605e-01       2.581737667019e+03 
       1.497546738676e-01       2.546703934621e+03 
       1.548092240609e-01       2.508995415722e+03 
       1.600214370187e-01       2.452232873286e+03 
       1.653987052208e-01       2.363932596308e+03 
       1.709484155673e-01       2.238969238989e+03 
