# Matter power spectrum P(k) at redshift z=0
# for k=1.14405e-05 to 0.148421 h/Mpc,
# number of wavenumbers equal to 64
#    1:k (h/Mpc)              2:P (Mpc/h)^3        
       1.144049124960e-05       3.644887586301e+01 
       1.440272515753e-05       4.518701045403e+01 
       1.813195669990e-05       5.601995921647e+01 
       2.282678105505e-05       6.944986759121e+01 
       2.873721473967e-05       8.609923691320e+01 
       3.617800989995e-05       1.067397035665e+02 
       4.554541601119e-05       1.323276748557e+02 
       5.733828160723e-05       1.640485158781e+02 
       7.218461978395e-05       2.033710007490e+02 
       9.087505218672e-05       2.521146144088e+02 
       1.144049124960e-04       3.125322218205e+02 
       1.440272515753e-04       3.874113108498e+02 
       1.813195669990e-04       4.801970268178e+02 
       2.282678105505e-04       5.951399906019e+02 
       2.873721473967e-04       7.374708860783e+02 
       3.617800989995e-04       9.136013729888e+02 
       4.554541601119e-04       1.131346680958e+03 
       5.733828160723e-04       1.400159545072e+03 
       7.218461978395e-04       1.731358080422e+03 
       9.087505218672e-04       2.138318191273e+03 
       1.144049124960e-03       2.636563233146e+03 
       1.440272515753e-03       3.243602937537e+03 
       1.813195669990e-03       3.978290573604e+03 
       2.282678105505e-03       4.859606004199e+03 
       2.873721473967e-03       5.904575169758e+03 
       3.617800989995e-03       7.124610890863e+03 
       4.554541601119e-03       8.520557200870e+03 
       5.733828160723e-03       1.007567513338e+04 
       7.218461978395e-03       1.174631192098e+04 
       9.087505218672e-03       1.345256748621e+04 
       1.144049124960e-02       1.506605205845e+04 
       1.440272515753e-02       1.640169930561e+04 
       1.813195669957e-02       1.722558339350e+04 
       2.282677993803e-02       1.729334788437e+04 
       2.873668249929e-02       1.645720277627e+04 
       3.612771961404e-02       1.484431777871e+04 
       4.437328321851e-02       1.310485133959e+04 
       5.072470011788e-02       1.203017217549e+04 
       5.547744101329e-02       1.137122730596e+04 
       5.949696936334e-02       1.088065398580e+04 
       6.313439940360e-02       1.046599006951e+04 
       6.655383446738e-02       1.008600034188e+04 
       6.984528493782e-02       9.718703055453e+03 
       7.306412213123e-02       9.352788877537e+03 
       7.624742994462e-02       8.982320172157e+03 
       7.942175113342e-02       8.606705963251e+03 
       8.260714409182e-02       8.227292094998e+03 
       8.581947735711e-02       7.848516914904e+03 
       8.907180845768e-02       7.475744637573e+03 
       9.237525392996e-02       7.114857860013e+03 
       9.573956061177e-02       6.772031610987e+03 
       9.917349333008e-02       6.452171161018e+03 
       1.026851052446e-01       6.158958374439e+03 
       1.062819306167e-01       5.893923420473e+03 
       1.099711247521e-01       5.656357573418e+03 
       1.137595670151e-01       5.443144295803e+03 
       1.176539374289e-01       5.249060781199e+03 
       1.216607740092e-01       5.067162501772e+03 
       1.257865158199e-01       4.889833778824e+03 
       1.300375353407e-01       4.709743037599e+03 
       1.344201628063e-01       4.521279207985e+03 
       1.389407045628e-01       4.321531639075e+03 
       1.436054570760e-01       4.111356440183e+03 
       1.484207179547e-01       3.895239326500e+03 
