# Matter power spectrum P(k) at redshift z=0
# for k=9.8333e-06 to 0.121086 h/Mpc,
# number of wavenumbers equal to 62
#    1:k (h/Mpc)              2:P (Mpc/h)^3        
       9.833303069478e-06       6.985681192857e+01 
       1.237939511604e-05       8.667588233892e+01 
       1.558473509422e-05       1.075443009559e+02 
       1.962001904620e-05       1.334369350733e+02 
       2.470014055714e-05       1.655632310352e+02 
       3.109563462227e-05       2.054236715145e+02 
       3.914708462185e-05       2.548796035294e+02 
       4.928325962810e-05       3.162398030660e+02 
       6.204394792187e-05       3.923674609021e+02 
       7.810870268687e-05       4.868122946650e+02 
       9.833303069478e-05       6.039731253947e+02 
       1.237939511604e-04       7.492970183139e+02 
       1.558473509422e-04       9.295214677758e+02 
       1.962001904620e-04       1.152965547042e+03 
       2.470014055714e-04       1.429873877882e+03 
       3.109563462227e-04       1.772812431183e+03 
       3.914708462185e-04       2.197106782998e+03 
       4.928325962810e-04       2.721301825762e+03 
       6.204394792187e-04       3.367608390050e+03 
       7.810870268687e-04       4.162279865376e+03 
       9.833303069478e-04       5.135713301903e+03 
       1.237939511604e-03       6.321921728296e+03 
       1.558473509422e-03       7.758123680542e+03 
       1.962001904620e-03       9.481405889037e+03 
       2.470014055714e-03       1.152447984648e+04 
       3.109563462227e-03       1.390858270431e+04 
       3.914708462185e-03       1.663321557824e+04 
       4.928325962810e-03       1.966084505751e+04 
       6.204394792187e-03       2.289686085040e+04 
       7.810870268687e-03       2.616767275710e+04 
       9.833303069478e-03       2.918726350835e+04 
       1.237939511604e-02       3.153829622877e+04 
       1.558473509408e-02       3.267495343733e+04 
       1.962001845616e-02       3.203670129586e+04 
       2.469982145257e-02       2.931238995321e+04 
       3.106220037725e-02       2.493555150485e+04 
       3.828669591711e-02       2.062367105059e+04 
       4.397716832515e-02       1.824365608975e+04 
       4.819462254495e-02       1.700307966880e+04 
       5.173794408930e-02       1.620533238618e+04 
       5.493309630994e-02       1.560060795796e+04 
       5.793044919007e-02       1.507789572549e+04 
       6.081168945423e-02       1.457715336160e+04 
       6.362671992894e-02       1.406251464210e+04 
       6.640878572745e-02       1.351611781107e+04 
       6.918158142245e-02       1.292872898932e+04 
       7.196295007725e-02       1.230236205381e+04 
       7.476696533041e-02       1.164569338634e+04 
       7.760517779003e-02       1.097314671015e+04 
       8.048739902373e-02       1.030272990027e+04 
       8.342221504292e-02       9.653254620198e+03 
       8.641733402137e-02       9.043927073976e+03 
       8.947982834322e-02       8.490665762388e+03 
       9.261630694996e-02       8.005208348792e+03 
       9.583304031573e-02       7.593565824390e+03 
       9.913605236577e-02       7.254840208125e+03 
       1.025311887857e-01       6.982010760588e+03 
       1.060241681305e-01       6.761233234468e+03 
       1.096206202016e-01       6.573284085097e+03 
       1.133261148955e-01       6.395737230193e+03 
       1.171461838957e-01       6.204751318009e+03 
       1.210863370268e-01       5.981843143531e+03 
