# Matter power spectrum P(k) at redshift z=0
# for k=1.11445e-05 to 0.127131 h/Mpc,
# number of wavenumbers equal to 60
#    1:k (h/Mpc)              2:P (Mpc/h)^3        
       1.114445770802e-05       2.818551376429e+01 
       1.403004100929e-05       3.523347980197e+01 
       1.766277515510e-05       4.404380783601e+01 
       2.223611648557e-05       5.505714864957e+01 
       2.799361210330e-05       6.882432308747e+01 
       3.524186964475e-05       8.603380805058e+01 
       4.436688525491e-05       1.075461088266e+02 
       5.585459928956e-05       1.344366443473e+02 
       7.031677441121e-05       1.680492248104e+02 
       8.852357418167e-05       2.100626636863e+02 
       1.114445770802e-04       2.625735368069e+02 
       1.403004100929e-04       3.281986859283e+02 
       1.766277515510e-04       4.102014860638e+02 
       2.223611648557e-04       5.126461250930e+02 
       2.799361210330e-04       6.405837897761e+02 
       3.524186964475e-04       8.002733131745e+02 
       4.436688525491e-04       9.994360165236e+02 
       5.585459928956e-04       1.247540191364e+03 
       7.031677441121e-04       1.556104887990e+03 
       8.852357418167e-04       1.939002351248e+03 
       1.114445770802e-03       2.412707492464e+03 
       1.403004100929e-03       2.996105717438e+03 
       1.766277515510e-03       3.710843121884e+03 
       2.223611648557e-03       4.579909527606e+03 
       2.799361210330e-03       5.626028726969e+03 
       3.524186964475e-03       6.868557120331e+03 
       4.436688525491e-03       8.318616373737e+03 
       5.585459928956e-03       9.971539405804e+03 
       7.031677441121e-03       1.179585945965e+04 
       8.852357418167e-03       1.372010670570e+04 
       1.114445770802e-02       1.561423342510e+04 
       1.403004100929e-02       1.727081152896e+04 
       1.766277515484e-02       1.840299766592e+04 
       2.223611552646e-02       1.867996957132e+04 
       2.799313981906e-02       1.785936650815e+04 
       3.519602940824e-02       1.604051671989e+04 
       4.327038910175e-02       1.402153612409e+04 
       4.952475042717e-02       1.281256041423e+04 
       5.419295796433e-02       1.212217454775e+04 
       5.813429700229e-02       1.164368526244e+04 
       6.169771957779e-02       1.126036396571e+04 
       6.504576483262e-02       1.091792729370e+04 
       6.826736302709e-02       1.058637124449e+04 
       7.141712253750e-02       1.024834964413e+04 
       7.453156609331e-02       9.893398776664e+03 
       7.763680603070e-02       9.518005336955e+03 
       8.075255740438e-02       9.122579945256e+03 
       8.389440494901e-02       8.711463547030e+03 
       8.707516401508e-02       8.291985249177e+03 
       9.030573858699e-02       7.873378808679e+03 
       9.359568432156e-02       7.465871714339e+03 
       9.695359042298e-02       7.079657645984e+03 
       1.003873458119e-01       6.723364058579e+03 
       1.039043288477e-01       6.403723165324e+03 
       1.075115450181e-01       6.123910772958e+03 
       1.112157282735e-01       5.883856776219e+03 
       1.150234163664e-01       5.679534024801e+03 
       1.189410072354e-01       5.503224459850e+03 
       1.229748013471e-01       5.344100884140e+03 
       1.271310335264e-01       5.189433972097e+03 
