# Matter power spectrum P(k) at redshift z=0
# for k=1.61698e-05 to 0.184197 h/Mpc,
# number of wavenumbers equal to 60
#    1:k (h/Mpc)              2:P (Mpc/h)^3        
       1.616984350919e-05       1.128664106615e+01 
       2.035662689845e-05       1.414993233025e+01 
       2.562747490087e-05       1.773960083026e+01 
       3.226307939282e-05       2.223990675442e+01 
       4.061681051036e-05       2.788185151666e+01 
       5.113353489751e-05       3.495501108856e+01 
       6.437330647735e-05       4.382238587259e+01 
       8.104119136554e-05       5.493897982796e+01 
       1.020248152122e-04       6.887506062608e+01 
       1.284416325042e-04       8.634523686779e+01 
       1.616984350919e-04       1.082447535342e+02 
       2.035662689845e-04       1.356946826380e+02 
       2.562747490087e-04       1.700979735039e+02 
       3.226307939282e-04       2.132085590079e+02 
       4.061681051036e-04       2.672158063990e+02 
       5.113353489751e-04       3.348464003512e+02 
       6.437330647735e-04       4.194850917774e+02 
       8.104119136554e-04       5.253145609646e+02 
       1.020248152122e-03       6.574728030753e+02 
       1.284416325042e-03       8.222225329352e+02 
       1.616984350919e-03       1.027115496364e+03 
       2.035662689845e-03       1.281110134208e+03 
       2.562747490087e-03       1.594530233587e+03 
       3.226307939282e-03       1.978963320645e+03 
       4.061681051036e-03       2.446750055039e+03 
       5.113353489751e-03       3.009872925354e+03 
       6.437330647735e-03       3.678204912537e+03 
       8.104119136554e-03       4.456692533982e+03 
       1.020248152122e-02       5.340814691493e+03 
       1.284416325042e-02       6.311025367287e+03 
       1.616984350919e-02       7.324627650404e+03 
       2.035662689845e-02       8.307458201587e+03 
       2.562747490046e-02       9.148299967997e+03 
       3.226307793031e-02       9.706173547392e+03 
       4.061609960763e-02       9.848345226556e+03 
       5.106525991085e-02       9.534396865630e+03 
       6.275673633098e-02       8.962965928760e+03 
       7.179284848336e-02       8.527775524709e+03 
       7.854407397211e-02       8.230595472270e+03 
       8.424791225936e-02       7.993855383585e+03 
       8.940669139375e-02       7.784230167138e+03 
       9.425470519923e-02       7.585477550896e+03 
       9.892026922897e-02       7.388682891188e+03 
       1.034822326631e-01       7.188811394550e+03 
       1.079933592948e-01       6.983338781216e+03 
       1.124913895422e-01       6.771577649825e+03 
       1.170048280451e-01       6.554304992706e+03 
       1.215562146261e-01       6.333328496237e+03 
       1.261640887360e-01       6.111504033776e+03 
       1.308442283569e-01       5.891906094410e+03 
       1.356104631942e-01       5.677918985115e+03 
       1.404752263350e-01       5.472796553156e+03 
       1.454499388272e-01       5.278920050069e+03 
       1.505452838415e-01       5.098020509149e+03 
       1.557714056674e-01       4.930354269302e+03 
       1.611380561776e-01       4.775239185709e+03 
       1.666547037282e-01       4.630305440126e+03 
       1.723306146621e-01       4.492255373124e+03 
       1.781749145158e-01       4.357146641600e+03 
       1.841966340307e-01       4.220859447368e+03 
