# Matter power spectrum P(k) at redshift z=0
# for k=1.17217e-05 to 0.145128 h/Mpc,
# number of wavenumbers equal to 63
#    1:k (h/Mpc)              2:P (Mpc/h)^3        
       1.172165205116e-05       3.841386077788e+01 
       1.475668563542e-05       4.770209258005e+01 
       1.857756654029e-05       5.923613338732e+01 
       2.338777060686e-05       7.355892398138e+01 
       2.944345874219e-05       9.134469773543e+01 
       3.706711842166e-05       1.134305861121e+02 
       4.666473732301e-05       1.408559230420e+02 
       5.874742365064e-05       1.749110005861e+02 
       7.395862451123e-05       2.171973282552e+02 
       9.310839181853e-05       2.697021913601e+02 
       1.172165205116e-04       3.348905070315e+02 
       1.475668563542e-04       4.158175728155e+02 
       1.857756654029e-04       5.162665158213e+02 
       2.338777060686e-04       6.409141107184e+02 
       2.944345874219e-04       7.955276886441e+02 
       3.706711842166e-04       9.871934750084e+02 
       4.666473732301e-04       1.224572487904e+03 
       5.874742365064e-04       1.518174139211e+03 
       7.395862451123e-04       1.880630194988e+03 
       9.310839181853e-04       2.326938482177e+03 
       1.172165205116e-03       2.874605029930e+03 
       1.475668563542e-03       3.543527267378e+03 
       1.857756654029e-03       4.355413374011e+03 
       2.338777060686e-03       5.332429838585e+03 
       2.944345874219e-03       6.495135515047e+03 
       3.706711842166e-03       7.858577029043e+03 
       4.666473732301e-03       9.426854512009e+03 
       5.874742365064e-03       1.118548074198e+04 
       7.395862451123e-03       1.309102520927e+04 
       9.310839181853e-03       1.506102762287e+04 
       1.172165205116e-02       1.695906118947e+04 
       1.475668563542e-02       1.858901228108e+04 
       1.857756653967e-02       1.969806635347e+04 
       2.338776876955e-02       2.001727220227e+04 
       2.944268529877e-02       1.937268491179e+04 
       3.700107630010e-02       1.786295821766e+04 
       4.527068985846e-02       1.614061242489e+04 
       5.151758199233e-02       1.502060025712e+04 
       5.623830665641e-02       1.428255428004e+04 
       6.025585868457e-02       1.370465057446e+04 
       6.390380726265e-02       1.320184663779e+04 
       6.734006544000e-02       1.273483071380e+04 
       7.065206083500e-02       1.228342938428e+04 
       7.389394060234e-02       1.183648253409e+04 
       7.710215653064e-02       1.138943441002e+04 
       8.030290736397e-02       1.094184554348e+04 
       8.351606006201e-02       1.049548753969e+04 
       8.675737813542e-02       1.005429654578e+04 
       9.003986577709e-02       9.623214743017e+03 
       9.337461857030e-02       9.207644174123e+03 
       9.677138350971e-02       8.812505338190e+03 
       1.002389398308e-01       8.441820757391e+03 
       1.037853650267e-01       8.097927297516e+03 
       1.074182247968e-01       7.781297191075e+03 
       1.111447110935e-01       7.489890951009e+03 
       1.149717438258e-01       7.219962789198e+03 
       1.189060465280e-01       6.965702722077e+03 
       1.229542030142e-01       6.720386045891e+03 
       1.271226999309e-01       6.477146747660e+03 
       1.314179587459e-01       6.230067474438e+03 
       1.358463598048e-01       5.975483404595e+03 
       1.404142604823e-01       5.712361276239e+03 
       1.451280090531e-01       5.443426051926e+03 
