# Matter power spectrum P(k) at redshift z=0
# for k=1.22225e-05 to 0.165492 h/Mpc,
# number of wavenumbers equal to 64
#    1:k (h/Mpc)              2:P (Mpc/h)^3        
       1.222249430581e-05       2.953540351280e+01 
       1.538720867709e-05       3.689031822452e+01 
       1.937134802017e-05       4.607672654107e+01 
       2.438708228331e-05       5.755063034031e+01 
       3.070151760597e-05       7.188161869239e+01 
       3.865092069480e-05       8.978096550849e+01 
       4.865862625192e-05       1.121369046433e+02 
       6.125758109154e-05       1.400585210710e+02 
       7.711872550118e-05       1.749303782879e+02 
       9.708672325862e-05       2.184804683260e+02 
       1.222249430581e-04       2.728643765399e+02 
       1.538720867709e-04       3.407691754718e+02 
       1.937134802017e-04       4.255407103449e+02 
       2.438708228331e-04       5.313378929374e+02 
       3.070151760597e-04       6.633166728291e+02 
       3.865092069480e-04       8.278440506255e+02 
       4.865862625192e-04       1.032738294553e+03 
       6.125758109154e-04       1.287525573254e+03 
       7.711872550118e-04       1.603695904132e+03 
       9.708672325862e-04       1.994928594729e+03 
       1.222249430581e-03       2.477218161035e+03 
       1.538720867709e-03       3.068747519107e+03 
       1.937134802017e-03       3.789232026061e+03 
       2.438708228331e-03       4.658817417226e+03 
       3.070151760597e-03       5.695759130092e+03 
       3.865092069480e-03       6.912731214822e+03 
       4.865862625192e-03       8.311635329305e+03 
       6.125758109154e-03       9.876273088204e+03 
       7.711872550118e-03       1.156233948501e+04 
       9.708672325862e-03       1.328758066611e+04 
       1.222249430581e-02       1.491790718883e+04 
       1.538720867709e-02       1.625933858199e+04 
       1.937134802013e-02       1.706009708376e+04 
       2.438708202611e-02       1.705166854420e+04 
       3.070133536390e-02       1.606034749075e+04 
       3.862712608144e-02       1.420567539004e+04 
       4.790750943003e-02       1.214975374924e+04 
       5.561968687842e-02       1.086778227050e+04 
       6.123391114486e-02       1.017096757450e+04 
       6.588159780796e-02       9.699420353572e+03 
       7.003982172743e-02       9.323788368782e+03 
       7.392268523402e-02       8.988719011668e+03 
       7.764410067124e-02       8.665365495764e+03 
       8.127262522530e-02       8.339056508044e+03 
       8.485341785749e-02       8.001838195246e+03 
       8.841837574480e-02       7.651810289825e+03 
       9.199134022531e-02       7.290720238981e+03 
       9.559099702458e-02       6.923387105941e+03 
       9.923259824374e-02       6.556674288416e+03 
       1.029290383325e-01       6.198503208425e+03 
       1.066915549780e-01       5.856892954764e+03 
       1.105302015945e-01       5.539338866473e+03 
       1.144541750025e-01       5.251287233300e+03 
       1.184720480414e-01       4.996155956336e+03 
       1.225919378386e-01       4.774766700426e+03 
       1.268216293424e-01       4.584562838534e+03 
       1.311686670083e-01       4.420380129517e+03 
       1.356404233443e-01       4.274640701806e+03 
       1.402441503627e-01       4.137880163762e+03 
       1.449870182557e-01       4.000366257516e+03 
       1.498761444735e-01       3.853297778761e+03 
       1.549186156309e-01       3.691091109946e+03 
       1.601215041612e-01       3.511878421494e+03 
       1.654918813063e-01       3.319024146877e+03 
