# Matter power spectrum P(k) at redshift z=0
# for k=1.38094e-05 to 0.139129 h/Mpc,
# number of wavenumbers equal to 58
#    1:k (h/Mpc)              2:P (Mpc/h)^3        
       1.380942092934e-05       2.305815173439e+01 
       1.738503093011e-05       2.875240573337e+01 
       2.188645722275e-05       3.585285418468e+01 
       2.755341717186e-05       4.470673706081e+01 
       3.468769705943e-05       5.574704410162e+01 
       4.366922330473e-05       6.951361398159e+01 
       5.497629493164e-05       8.667958754450e+01 
       6.921105473573e-05       1.080841563649e+02 
       8.713155558388e-05       1.347734756915e+02 
       1.096921294937e-04       1.680514976357e+02 
       1.380942092934e-04       2.095430895255e+02 
       1.738503093011e-04       2.612722217119e+02 
       2.188645722275e-04       3.257584812912e+02 
       2.755341717186e-04       4.061354901413e+02 
       3.468769705943e-04       5.062950211168e+02 
       4.366922330473e-04       6.310601676190e+02 
       5.497629493164e-04       7.863899944644e+02 
       6.921105473573e-04       9.796160931431e+02 
       8.713155558388e-04       1.219708569393e+03 
       1.096921294937e-03       1.517562610817e+03 
       1.380942092934e-03       1.886278573258e+03 
       1.738503093011e-03       2.341369155564e+03 
       2.188645722275e-03       2.900655742292e+03 
       2.755341717186e-03       3.584252437702e+03 
       3.468769705943e-03       4.413638736336e+03 
       4.366922330473e-03       5.409899589082e+03 
       5.497629493164e-03       6.590852909788e+03 
       6.921105473573e-03       7.966328556739e+03 
       8.713155558388e-03       9.530521414455e+03 
       1.096921294937e-02       1.125256816800e+04 
       1.380942092934e-02       1.306276074826e+04 
       1.738503093011e-02       1.483735797421e+04 
       2.188645721847e-02       1.639098038027e+04 
       2.755340892184e-02       1.748915662119e+04 
       3.468526007747e-02       1.791482031463e+04 
       4.351377992753e-02       1.760842249177e+04 
       5.253671818752e-02       1.692392086357e+04 
       5.908397489104e-02       1.637918943075e+04 
       6.417735368695e-02       1.595683929065e+04 
       6.858562619869e-02       1.559011926163e+04 
       7.262532558888e-02       1.524715856013e+04 
       7.645185314812e-02       1.491108374436e+04 
       8.015352661529e-02       1.457227445070e+04 
       8.378609719723e-02       1.422527748128e+04 
       8.738765142692e-02       1.386788148663e+04 
       9.098588942734e-02       1.349981469885e+04 
       9.460202606466e-02       1.312281744884e+04 
       9.825303777562e-02       1.274006187986e+04 
       1.019530324682e-01       1.235575534109e+04 
       1.057141241460e-01       1.197465374440e+04 
       1.095470128305e-01       1.160144426354e+04 
       1.134613812775e-01       1.124062491575e+04 
       1.174661734526e-01       1.089543248124e+04 
       1.215697941670e-01       1.056777506176e+04 
       1.257802546186e-01       1.025760850375e+04 
       1.301052798672e-01       9.963372143711e+03 
       1.345523889226e-01       9.681153071552e+03 
       1.391289547620e-01       9.406091955509e+03 
