# Matter power spectrum P(k) at redshift z=0
# for k=1.08866e-05 to 0.127961 h/Mpc,
# number of wavenumbers equal to 61
#    1:k (h/Mpc)              2:P (Mpc/h)^3        
       1.088660468797e-05       4.638174822391e+01 
       1.370542328985e-05       5.794776462796e+01 
       1.725410565899e-05       7.239790481177e+01 
       2.172163207188e-05       9.045130647314e+01 
       2.734591460093e-05       1.130063944652e+02 
       3.442646679987e-05       1.411855102570e+02 
       4.334035389264e-05       1.763906378142e+02 
       5.456227287160e-05       2.203729380745e+02 
       6.868983184330e-05       2.753193548229e+02 
       8.647537483940e-05       3.439604551938e+02 
       1.088660468797e-04       4.297042776576e+02 
       1.370542328985e-04       5.368019723027e+02 
       1.725410565899e-04       6.705515861285e+02 
       2.172163207188e-04       8.375466889412e+02 
       2.734591460093e-04       1.045975776295e+03 
       3.442646679987e-04       1.305976020645e+03 
       4.334035389264e-04       1.630040077584e+03 
       5.456227287160e-04       2.033467313130e+03 
       6.868983184330e-04       2.534841146453e+03 
       8.647537483940e-04       3.156497037473e+03 
       1.088660468797e-03       3.924894337727e+03 
       1.370542328985e-03       4.870317832629e+03 
       1.725410565899e-03       6.027199312652e+03 
       2.172163207188e-03       7.431939678701e+03 
       2.734591460093e-03       9.120079365720e+03 
       3.442646679987e-03       1.112118386270e+04 
       4.334035389264e-03       1.345086336431e+04 
       5.456227287160e-03       1.609848449720e+04 
       6.868983184330e-03       1.900958624368e+04 
       8.647537483940e-03       2.206504641179e+04 
       1.088660468797e-02       2.505208944818e+04 
       1.370542328985e-02       2.763316994102e+04 
       1.725410565868e-02       2.935228660185e+04 
       2.172163102302e-02       2.968766391554e+04 
       2.734541309692e-02       2.827341515540e+04 
       3.437894587646e-02       2.530066378808e+04 
       4.222971619106e-02       2.207471177299e+04 
       4.828055653219e-02       2.016676217050e+04 
       5.280715064251e-02       1.907570833380e+04 
       5.663473540216e-02       1.831680670198e+04 
       6.009813505806e-02       1.770682915415e+04 
       6.335378306783e-02       1.716066397486e+04 
       6.648746028716e-02       1.663077960596e+04 
       6.955192612343e-02       1.608974621896e+04 
       7.258251006523e-02       1.552290829665e+04 
       7.560449620773e-02       1.492368239400e+04 
       7.863698992196e-02       1.429399379139e+04 
       8.169510454281e-02       1.364066646663e+04 
       8.479127528770e-02       1.297562166436e+04 
       8.793608823350e-02       1.231362327775e+04 
       9.113882462277e-02       1.167088383867e+04 
       9.440783021607e-02       1.106322863789e+04 
       9.775077283739e-02       1.050407259204e+04 
       1.011748260104e-01       1.000343883434e+04 
       1.046868022664e-01       9.565952940312e+03 
       1.082932512729e-01       9.191158135689e+03 
       1.120005328003e-01       8.871888340042e+03 
       1.158148713332e-01       8.595758642649e+03 
       1.197423970847e-01       8.345382991440e+03 
       1.237891768262e-01       8.100707363213e+03 
       1.279612370729e-01       7.842583772672e+03 
