# Matter power spectrum P(k) at redshift z=0
# for k=1.22838e-05 to 0.113839 h/Mpc,
# number of wavenumbers equal to 57
#    1:k (h/Mpc)              2:P (Mpc/h)^3        
       1.228379171778e-05       2.466032074673e+01 
       1.546437754670e-05       3.095055921061e+01 
       1.946849787113e-05       3.884526351730e+01 
       2.450938669942e-05       4.875367982046e+01 
       3.085548974339e-05       6.118939838333e+01 
       3.884476013131e-05       7.679701991538e+01 
       4.890265564435e-05       9.638544291810e+01 
       6.156479589490e-05       1.209697594276e+02 
       7.750548602401e-05       1.518236667715e+02 
       9.757362590908e-05       1.905451336924e+02 
       1.228379171778e-04       2.391384948177e+02 
       1.546437754670e-04       3.001168997439e+02 
       1.946849787113e-04       3.766297450082e+02 
       2.450938669942e-04       4.726203927364e+02 
       3.085548974339e-04       5.930199026130e+02 
       3.884476013131e-04       7.439825256896e+02 
       4.890265564435e-04       9.331676617153e+02 
       6.156479589490e-04       1.170071168526e+03 
       7.750548602401e-04       1.466405391183e+03 
       9.757362590908e-04       1.836519912062e+03 
       1.228379171778e-03       2.297832532455e+03 
       1.546437754670e-03       2.871191757168e+03 
       1.946849787113e-03       3.581047885743e+03 
       2.450938669942e-03       4.455206678023e+03 
       3.085548974339e-03       5.524016972644e+03 
       3.884476013131e-03       6.818607999326e+03 
       4.890265564435e-03       8.367109501835e+03 
       6.156479589490e-03       1.018884770587e+04 
       7.750548602401e-03       1.228487514787e+04 
       9.757362590908e-03       1.462621304759e+04 
       1.228379171778e-02       1.713531233631e+04 
       1.546437754670e-02       1.966966001165e+04 
       1.946849784109e-02       2.200932669664e+04 
       2.450935204584e-02       2.387245197567e+04 
       3.084875945465e-02       2.498457252276e+04 
       3.854321429695e-02       2.521561274668e+04 
       4.564585068982e-02       2.486815715068e+04 
       5.072871754619e-02       2.444948713668e+04 
       5.481668847664e-02       2.404474294763e+04 
       5.841874825891e-02       2.364543780916e+04 
       6.175289678988e-02       2.324220143550e+04 
       6.493074517412e-02       2.282980416206e+04 
       6.801764789486e-02       2.240511449251e+04 
       7.105577970393e-02       2.196710650891e+04 
       7.407445135920e-02       2.151637174461e+04 
       7.709528093180e-02       2.105458939663e+04 
       8.013502146357e-02       2.058518257182e+04 
       8.320721526246e-02       2.011078890061e+04 
       8.632321532633e-02       1.963561749863e+04 
       8.949284422882e-02       1.916323662715e+04 
       9.272483472237e-02       1.869668730882e+04 
       9.602713327287e-02       1.823812994632e+04 
       9.940711435871e-02       1.778888983150e+04 
       1.028717348160e-01       1.734842340793e+04 
       1.064276467698e-01       1.691536549489e+04 
       1.100812812489e-01       1.648688018434e+04 
       1.138389106039e-01       1.605953138501e+04 
