# Matter power spectrum P(k) at redshift z=0
# for k=9.87203e-06 to 0.138636 h/Mpc,
# number of wavenumbers equal to 64
#    1:k (h/Mpc)              2:P (Mpc/h)^3        
       9.872030676463e-06       5.353980167667e+01 
       1.242815028461e-05       6.665091517974e+01 
       1.564611421489e-05       8.297266083914e+01 
       1.969729078096e-05       1.032911748552e+02 
       2.479741990765e-05       1.285850189733e+02 
       3.121810206868e-05       1.600721912906e+02 
       3.930126200224e-05       1.992685585479e+02 
       4.947735745020e-05       2.480604480894e+02 
       6.228830260248e-05       3.087946020387e+02 
       7.841632700379e-05       3.843894739702e+02 
       9.872030676463e-05       4.784723636823e+02 
       1.242815028461e-04       5.955474077143e+02 
       1.564611421489e-04       7.411994720713e+02 
       1.969729078096e-04       9.223380171502e+02 
       2.479741990765e-04       1.147482231817e+03 
       3.121810206868e-04       1.427082969706e+03 
       3.930126200224e-04       1.773867421065e+03 
       4.947735745020e-04       2.203179865125e+03 
       6.228830260248e-04       2.733278474484e+03 
       7.841632700379e-04       3.385527926253e+03 
       9.872030676463e-04       4.184322892195e+03 
       1.242815028461e-03       5.156347215620e+03 
       1.564611421489e-03       6.329641857134e+03 
       1.969729078096e-03       7.730330160552e+03 
       2.479741990765e-03       9.378211802904e+03 
       3.121810206868e-03       1.128007072122e+04 
       3.930126200224e-03       1.342080298950e+04 
       4.947735745020e-03       1.575077939423e+04 
       6.228830260248e-03       1.817064800788e+04 
       7.841632700379e-03       2.051684875395e+04 
       9.872030676463e-03       2.253869091325e+04 
       1.242815028461e-02       2.389079892078e+04 
       1.564611421489e-02       2.414318978871e+04 
       1.969729072898e-02       2.287785216926e+04 
       2.479736751735e-02       1.991493517557e+04 
       3.120898826763e-02       1.570153347837e+04 
       3.893000265014e-02       1.161884539164e+04 
       4.585241391613e-02       9.364394513811e+03 
       5.081722158244e-02       8.433117850871e+03 
       5.484350080965e-02       7.962621093673e+03 
       5.840678755297e-02       7.672311749069e+03 
       6.171329027621e-02       7.450066429245e+03 
       6.486972743482e-02       7.239550358072e+03 
       6.793907016390e-02       7.008358811965e+03 
       7.096218806315e-02       6.739306306613e+03 
       7.396761262856e-02       6.424771974421e+03 
       7.697646482259e-02       6.065909520922e+03 
       8.000516347381e-02       5.670833718809e+03 
       8.306701630478e-02       5.252660067253e+03 
       8.617320554147e-02       4.828070715836e+03 
       8.933342541765e-02       4.414684480588e+03 
       9.255630943263e-02       4.029607797810e+03 
       9.584972523581e-02       3.686459008242e+03 
       9.922098313386e-02       3.395714776460e+03 
       1.026769864469e-01       3.162385788109e+03 
       1.062243416242e-01       2.986557688104e+03 
       1.098694398299e-01       2.863842684092e+03 
       1.136185178722e-01       2.784788490951e+03 
       1.174777039141e-01       2.735613909251e+03 
       1.214530518294e-01       2.699024210898e+03 
       1.255505670319e-01       2.656511326185e+03 
       1.297762259207e-01       2.590328015097e+03 
       1.341359906250e-01       2.488243009758e+03 
       1.386358204303e-01       2.346111804062e+03 
