# Matter power spectrum P(k) at redshift z=0
# for k=1.70944e-05 to 0.200306 h/Mpc,
# number of wavenumbers equal to 60
#    1:k (h/Mpc)              2:P (Mpc/h)^3        
       1.709436218659e-05       8.391312194014e+00 
       2.152052695511e-05       1.053609126795e+01 
       2.709273825899e-05       1.322905918472e+01 
       3.410773666934e-05       1.661032275207e+01 
       4.293909643181e-05       2.085579101777e+01 
       5.405711965749e-05       2.618631816049e+01 
       6.805388162521e-05       3.287917503422e+01 
       8.567476094921e-05       4.128243664588e+01 
       1.078581337083e-04       5.183301508013e+01 
       1.357853453941e-04       6.507923798582e+01 
       1.709436218659e-04       8.170907423532e+01 
       2.152052695511e-04       1.025853286644e+02 
       2.709273825899e-04       1.287893562898e+02 
       3.410773666934e-04       1.616750364006e+02 
       4.293909643181e-04       2.029348184086e+02 
       5.405711965749e-04       2.546795007587e+02 
       6.805388162521e-04       3.195328916256e+02 
       8.567476094921e-04       4.007415660681e+02 
       1.078581337083e-03       5.022984917262e+02 
       1.357853453941e-03       6.290762227634e+02 
       1.709436218659e-03       7.869561880494e+02 
       2.152052695511e-03       9.829213930952e+02 
       2.709273825899e-03       1.224983616702e+03 
       3.410773666934e-03       1.522229631537e+03 
       4.293909643181e-03       1.884247421952e+03 
       5.405711965749e-03       2.320341873751e+03 
       6.805388162521e-03       2.838122181115e+03 
       8.567476094921e-03       3.441275620335e+03 
       1.078581337083e-02       4.125911694135e+03 
       1.357853453941e-02       4.876138905434e+03 
       1.709436218659e-02       5.657486345682e+03 
       2.152052695511e-02       6.409965486456e+03 
       2.709273825888e-02       7.043128404515e+03 
       3.410773610487e-02       7.441239366353e+03 
       4.293874018840e-02       7.493870466459e+03 
       5.401479066415e-02       7.166448494389e+03 
       6.682838143743e-02       6.619965828633e+03 
       7.722660088814e-02       6.210167473394e+03 
       8.485058703123e-02       5.953097241014e+03 
       9.120280179784e-02       5.761442517221e+03 
       9.690548191839e-02       5.599095801028e+03 
       1.022411667371e-01       5.449118782440e+03 
       1.073615336330e-01       5.302258343765e+03 
       1.123584567436e-01       5.153210524255e+03 
       1.172927482447e-01       4.999115347268e+03 
       1.222075276187e-01       4.838860037452e+03 
       1.271351272459e-01       4.672787241713e+03 
       1.321009565439e-01       4.502312967825e+03 
       1.371258043364e-01       4.329756995900e+03 
       1.422272815687e-01       4.158033914636e+03 
       1.474207632865e-01       3.990306270535e+03 
       1.527200248779e-01       3.829625952720e+03 
       1.581376840207e-01       3.678655985223e+03 
       1.636855148186e-01       3.539278731844e+03 
       1.693746752802e-01       3.412384043996e+03 
       1.752158744518e-01       3.297663469012e+03 
       1.812194965320e-01       3.193539992764e+03 
       1.873956936932e-01       3.097349242197e+03 
       1.937544557661e-01       3.005532026983e+03 
       2.003056626214e-01       2.914128244363e+03 
