# Matter power spectrum P(k) at redshift z=0
# for k=1.08679e-05 to 0.120978 h/Mpc,
# number of wavenumbers equal to 61
#    1:k (h/Mpc)              2:P (Mpc/h)^3        
       1.086788927721e-05       2.516965103567e+01 
       1.368186198364e-05       3.159416469303e+01 
       1.722444373187e-05       3.965848370024e+01 
       2.168428991807e-05       4.978116501490e+01 
       2.729890361456e-05       6.248752745145e+01 
       3.436728347449e-05       7.843693076043e+01 
       4.326584650038e-05       9.845693485271e+01 
       5.446847362211e-05       1.235860706488e+02 
       6.857174558451e-05       1.551274927989e+02 
       8.632671304743e-05       1.947160482659e+02 
       1.086788927721e-04       2.444020424864e+02 
       1.368186198364e-04       3.067554455414e+02 
       1.722444373187e-04       3.849950510536e+02 
       2.168428991807e-04       4.831472197740e+02 
       2.729890361456e-04       6.062389456238e+02 
       3.436728347449e-04       7.605288050257e+02 
       4.326584650038e-04       9.537769784440e+02 
       5.446847362211e-04       1.195551569668e+03 
       6.857174558451e-04       1.497562841244e+03 
       8.632671304743e-04       1.874006559947e+03 
       1.086788927721e-03       2.341866901204e+03 
       1.368186198364e-03       2.921062301676e+03 
       1.722444373187e-03       3.634165549745e+03 
       2.168428991807e-03       4.505857302167e+03 
       2.729890361456e-03       5.561276599774e+03 
       3.436728347449e-03       6.823010558128e+03 
       4.326584650038e-03       8.306425094265e+03 
       5.446847362211e-03       1.001237691215e+04 
       6.857174558451e-03       1.191667166727e+04 
       8.632671304743e-03       1.395758211461e+04 
       1.086788927721e-02       1.601819807952e+04 
       1.368186198364e-02       1.791267116090e+04 
       1.722444372851e-02       1.938108726787e+04 
       2.168428344526e-02       2.012894921883e+04 
       2.729699003810e-02       1.993557819536e+04 
       3.424514262645e-02       1.886368049348e+04 
       4.134757283159e-02       1.757610969975e+04 
       4.650159122575e-02       1.672543148909e+04 
       5.051084422717e-02       1.612553390309e+04 
       5.398068719838e-02       1.563438256672e+04 
       5.716035351079e-02       1.519198793078e+04 
       6.017219356786e-02       1.476871084636e+04 
       6.308573747327e-02       1.434828514380e+04 
       6.594487469043e-02       1.392169702616e+04 
       6.877958736975e-02       1.348541528309e+04 
       7.161168076492e-02       1.303915182228e+04 
       7.445785461799e-02       1.258537612137e+04 
       7.733147203635e-02       1.212884298181e+04 
       8.024363795804e-02       1.167533735136e+04 
       8.320388769308e-02       1.123178205602e+04 
       8.622064345526e-02       1.080468151285e+04 
       8.930152666451e-02       1.039973623385e+04 
       9.245357716535e-02       1.002063443349e+04 
       9.568341038074e-02       9.669544956684e+03 
       9.899733188178e-02       9.345587186542e+03 
       1.024014219908e-01       9.045441135967e+03 
       1.059015988265e-01       8.763262482972e+03 
       1.095036655484e-01       8.491561691626e+03 
       1.132133458537e-01       8.222266779509e+03 
       1.170363106626e-01       7.947422355657e+03 
       1.209781981922e-01       7.661562889639e+03 
