# Matter power spectrum P(k) at redshift z=0
# for k=1.74579e-05 to 0.196062 h/Mpc,
# number of wavenumbers equal to 58
#    1:k (h/Mpc)              2:P (Mpc/h)^3        
       1.745794425737e-05       1.090752697389e+01 
       2.197824966329e-05       1.366708705031e+01 
       2.766897700787e-05       1.712479682549e+01 
       3.483317827355e-05       2.145727730272e+01 
       4.385237330213e-05       2.688582204686e+01 
       5.520686711754e-05       3.368769277911e+01 
       6.950132791982e-05       4.221025936582e+01 
       8.749698787170e-05       5.288869786806e+01 
       1.101521814871e-04       6.626813119404e+01 
       1.386733804387e-04       8.303129653167e+01 
       1.745794425737e-04       1.040330675844e+02 
       2.197824966329e-04       1.303434285710e+02 
       2.766897700787e-04       1.633007697563e+02 
       3.483317827355e-04       2.045776119275e+02 
       4.385237330213e-04       2.562609770615e+02 
       5.520686711754e-04       3.209494733460e+02 
       6.950132791982e-04       4.018686225342e+02 
       8.749698787170e-04       5.030049429426e+02 
       1.101521814871e-03       6.292577262097e+02 
       1.386733804387e-03       7.866040500798e+02 
       1.745794425737e-03       9.822623208579e+02 
       2.197824966329e-03       1.224682884777e+03 
       2.766897700787e-03       1.523865352999e+03 
       3.483317827355e-03       1.890982756697e+03 
       4.385237330213e-03       2.337946010759e+03 
       5.520686711754e-03       2.876452830755e+03 
       6.950132791982e-03       3.516305819815e+03 
       8.749698787170e-03       4.262713759110e+03 
       1.101521814871e-02       5.111687297375e+03 
       1.386733804387e-02       6.044358464718e+03 
       1.745794425737e-02       7.018054609803e+03 
       2.197824966329e-02       7.956562097986e+03 
       2.766897700783e-02       8.741578745896e+03 
       3.483317803818e-02       9.217169297375e+03 
       4.385218641965e-02       9.227977339950e+03 
       5.518009772460e-02       8.715877530267e+03 
       6.858262380115e-02       7.887048907832e+03 
       7.999278684721e-02       7.261261370568e+03 
       8.824875473454e-02       6.897927807794e+03 
       9.503918368188e-02       6.647384827762e+03 
       1.010936815728e-01       6.448108837713e+03 
       1.067359889329e-01       6.272017201158e+03 
       1.121368294375e-01       6.103746715208e+03 
       1.173983017575e-01       5.934047553941e+03 
       1.225873385154e-01       5.757460460728e+03 
       1.277510377154e-01       5.571173113241e+03 
       1.329244926095e-01       5.374614998152e+03 
       1.381351347854e-01       5.169009301533e+03 
       1.434053039705e-01       4.957115195322e+03 
       1.487538492860e-01       4.742827968274e+03 
       1.541971699205e-01       4.530796585390e+03 
       1.597499153530e-01       4.325884936832e+03 
       1.654254702125e-01       4.132659326983e+03 
       1.712362980291e-01       3.954803084373e+03 
       1.771941896469e-01       3.794873323068e+03 
       1.833104454520e-01       3.653708169226e+03 
       1.895960105461e-01       3.530321515041e+03 
       1.960615757706e-01       3.421886745377e+03 
