# Matter power spectrum P(k) at redshift z=0
# for k=1.09636e-05 to 0.15494 h/Mpc,
# number of wavenumbers equal to 64
#    1:k (h/Mpc)              2:P (Mpc/h)^3        
       1.096362153449e-05       3.047479335357e+01 
       1.380238175507e-05       3.825869907178e+01 
       1.737616913474e-05       4.803072866083e+01 
       2.187530088336e-05       6.029864008410e+01 
       2.753937217270e-05       7.569982643554e+01 
       3.467001545307e-05       9.503436999026e+01 
       4.364696348117e-05       1.193064872866e+02 
       5.494827147410e-05       1.497764528342e+02 
       6.917577529290e-05       1.880255569546e+02 
       8.708714139680e-05       2.360372363501e+02 
       1.096362153449e-04       2.962980687424e+02 
       1.380238175507e-04       3.719229078649e+02 
       1.737616913474e-04       4.668087493615e+02 
       2.187530088336e-04       5.858217161116e+02 
       2.753937217270e-04       7.350202215716e+02 
       3.467001545307e-04       9.219141325146e+02 
       4.364696348117e-04       1.155754001973e+03 
       5.494827147410e-04       1.447836152889e+03 
       6.917577529290e-04       1.811799916220e+03 
       8.708714139680e-04       2.263877716502e+03 
       1.096362153449e-03       2.823010293040e+03 
       1.380238175507e-03       3.510462962105e+03 
       1.737616913474e-03       4.349367834196e+03 
       2.187530088336e-03       5.362738523102e+03 
       2.753937217270e-03       6.570459191319e+03 
       3.467001545307e-03       7.984575224065e+03 
       4.364696348117e-03       9.602703697864e+03 
       5.494827147410e-03       1.139859545225e+04 
       6.917577529290e-03       1.330971008158e+04 
       8.708714139680e-03       1.522456949287e+04 
       1.096362153449e-02       1.696544542127e+04 
       1.380238175507e-02       1.827352206380e+04 
       1.737616913474e-02       1.881891413841e+04 
       2.187530083825e-02       1.825167555459e+04 
       2.753932379070e-02       1.636807711078e+04 
       3.466116137262e-02       1.340577953267e+04 
       4.327007525444e-02       1.032958348096e+04 
       5.109323724344e-02       8.514551121256e+03 
       5.669685535223e-02       7.732104700905e+03 
       6.122399335897e-02       7.319050440306e+03 
       6.522253163586e-02       7.051948623589e+03 
       6.892868451210e-02       6.841043471177e+03 
       7.246409580864e-02       6.640883624130e+03 
       7.590029107130e-02       6.426066955719e+03 
       7.928357012371e-02       6.182687030374e+03 
       8.264618866994e-02       5.904355245307e+03 
       8.601198413919e-02       5.592664902842e+03 
       8.939946051779e-02       5.252924028016e+03 
       9.282359709821e-02       4.896217455575e+03 
       9.629696726104e-02       4.534972877796e+03 
       9.983046121706e-02       4.183229731414e+03 
       1.034337698942e-01       3.854212904872e+03 
       1.071157186229e-01       3.559374682411e+03 
       1.108845029142e-01       3.306761774692e+03 
       1.147478583868e-01       3.100897518429e+03 
       1.187131851615e-01       2.941954670924e+03 
       1.227876399980e-01       2.826174125479e+03 
       1.269782050900e-01       2.745672444900e+03 
       1.312917396719e-01       2.688978352358e+03 
       1.357350188054e-01       2.641764301095e+03 
       1.403147625398e-01       2.588711610028e+03 
       1.450376578617e-01       2.515754380446e+03 
       1.499103753340e-01       2.413504089072e+03 
       1.549395819748e-01       2.279460044606e+03 
