# Matter power spectrum P(k) at redshift z=0
# for k=1.39766e-05 to 0.173938 h/Mpc,
# number of wavenumbers equal to 61
#    1:k (h/Mpc)              2:P (Mpc/h)^3        
       1.397655512701e-05       2.670327230114e+01 
       1.759544041873e-05       3.328388884871e+01 
       2.215134707485e-05       4.148618316048e+01 
       2.788689373800e-05       5.170974276215e+01 
       3.510751918277e-05       6.445263668693e+01 
       4.419774804424e-05       8.033559405110e+01 
       5.564166815697e-05       1.001321981060e+02 
       7.004870999743e-05       1.248064434264e+02 
       8.818610107916e-05       1.555594246210e+02 
       1.110197236156e-04       1.938873284643e+02 
       1.397655512701e-04       2.416532766530e+02 
       1.759544041873e-04       3.011760478752e+02 
       2.215134707485e-04       3.753390554674e+02 
       2.788689373800e-04       4.677231137554e+02 
       3.510751918277e-04       5.827662107728e+02 
       4.419774804424e-04       7.259523319508e+02 
       5.564166815697e-04       9.040290026232e+02 
       7.004870999743e-04       1.125249613136e+03 
       8.818610107916e-04       1.399631775263e+03 
       1.110197236156e-03       1.739213961959e+03 
       1.397655512701e-03       2.158265724780e+03 
       1.759544041873e-03       2.673098124873e+03 
       2.215134707485e-03       3.302405944680e+03 
       2.788689373800e-03       4.066035007981e+03 
       3.510751918277e-03       4.983610744705e+03 
       4.419774804424e-03       6.071895172282e+03 
       5.564166815697e-03       7.340673951462e+03 
       7.004870999743e-03       8.786524068882e+03 
       8.818610107916e-03       1.038323841042e+04 
       1.110197236156e-02       1.207079744646e+04 
       1.397655512701e-02       1.373969772311e+04 
       1.759544041873e-02       1.521394913936e+04 
       2.215134707482e-02       1.624535361407e+04 
       2.788689356886e-02       1.653703583202e+04 
       3.510738113796e-02       1.584370262579e+04 
       4.417752602549e-02       1.418210889209e+04 
       5.493362231489e-02       1.213545830775e+04 
       6.414518815104e-02       1.078001860875e+04 
       7.080164854770e-02       1.006457306262e+04 
       7.626778744175e-02       9.605387025697e+03 
       8.113741972176e-02       9.258937097206e+03 
       8.567331815107e-02       8.962889244589e+03 
       9.001375692081e-02       8.684489815700e+03 
       9.424130156343e-02       8.403533965111e+03 
       9.841001687342e-02       8.109202913041e+03 
       1.025579114572e-01       7.796231257805e+03 
       1.067132845974e-01       7.463637959668e+03 
       1.108982430434e-01       7.114476587557e+03 
       1.151307801625e-01       6.754679857602e+03 
       1.194260705932e-01       6.392545683223e+03 
       1.237973111912e-01       6.037284026471e+03 
       1.282562866056e-01       5.698395953869e+03 
       1.328137607572e-01       5.384745619684e+03 
       1.374797542992e-01       5.103069257038e+03 
       1.422637450751e-01       4.857283196995e+03 
       1.471748151416e-01       4.648596534022e+03 
       1.522217598127e-01       4.474441867612e+03 
       1.574131691474e-01       4.329018699006e+03 
       1.627574891055e-01       4.203284141418e+03 
       1.682630675134e-01       4.086132590439e+03 
       1.739381886247e-01       3.965715893796e+03 
