# Matter power spectrum P(k) at redshift z=0
# for k=1.19821e-05 to 0.153888 h/Mpc,
# number of wavenumbers equal to 62
#    1:k (h/Mpc)              2:P (Mpc/h)^3        
       1.198206980444e-05       3.292679841986e+01 
       1.508453216270e-05       4.082620591532e+01 
       1.899030086465e-05       5.062071330669e+01 
       2.390737233612e-05       6.276491392185e+01 
       3.009759856317e-05       7.782243833439e+01 
       3.789063166515e-05       9.649204391030e+01 
       4.770147907219e-05       1.196399484551e+02 
       6.005260418414e-05       1.483398558558e+02 
       7.560174945184e-05       1.839223898592e+02 
       9.517696356101e-05       2.280361129505e+02 
       1.198206980444e-04       2.827225544562e+02 
       1.508453216270e-04       3.505080772343e+02 
       1.899030086465e-04       4.345155503672e+02 
       2.390737233612e-04       5.385985538453e+02 
       3.009759856317e-04       6.674999447882e+02 
       3.789063166515e-04       8.270344025880e+02 
       4.770147907219e-04       1.024290845618e+03 
       6.005260418414e-04       1.267845375195e+03 
       7.560174945184e-04       1.567969302478e+03 
       9.517696356101e-04       1.936806048108e+03 
       1.198206980444e-03       2.388457462283e+03 
       1.508453216270e-03       2.938679953982e+03 
       1.899030086465e-03       3.604708391284e+03 
       2.390737233612e-03       4.403862518437e+03 
       3.009759856317e-03       5.351532878797e+03 
       3.789063166515e-03       6.457974320580e+03 
       4.770147907219e-03       7.723683461040e+03 
       6.005260418414e-03       9.132720713980e+03 
       7.560174945184e-03       1.064342050042e+04 
       9.517696356101e-03       1.217869997073e+04 
       1.198206980444e-02       1.361221460488e+04 
       1.508453216270e-02       1.475873553219e+04 
       1.899030086462e-02       1.537274014067e+04 
       2.390737218208e-02       1.518957901765e+04 
       3.009747476735e-02       1.403712134729e+04 
       3.787272285457e-02       1.204343932418e+04 
       4.708140653516e-02       9.887971832244e+03 
       5.494164756898e-02       8.579436556708e+03 
       6.062570906477e-02       7.927603715302e+03 
       6.529750093484e-02       7.525805681455e+03 
       6.946143244298e-02       7.230392635398e+03 
       7.334105144390e-02       6.980754986802e+03 
       7.705413340609e-02       6.744981822220e+03 
       8.067106436906e-02       6.505120563872e+03 
       8.423796366791e-02       6.251225772219e+03 
       8.778727068455e-02       5.978986414592e+03 
       9.134314832874e-02       5.688514704101e+03 
       9.492447886354e-02       5.383694197595e+03 
       9.854663588338e-02       5.070884730213e+03 
       1.022225881118e-01       4.758127472430e+03 
       1.059636165982e-01       4.454755396036e+03 
       1.097797971900e-01       4.169297719840e+03 
       1.136803345584e-01       3.909335259548e+03 
       1.176737989804e-01       3.680678225249e+03 
       1.217682974320e-01       3.486125807130e+03 
       1.259715990856e-01       3.325616618164e+03 
       1.302912283975e-01       3.196292343735e+03 
       1.347345346740e-01       3.092001507363e+03 
       1.393087442811e-01       3.004026574889e+03 
       1.440209998869e-01       2.922114562897e+03 
       1.488783899670e-01       2.835472688790e+03 
       1.538879710250e-01       2.735027043214e+03 
