# Matter power spectrum P(k) at redshift z=0
# for k=1.21834e-05 to 0.137603 h/Mpc,
# number of wavenumbers equal to 60
#    1:k (h/Mpc)              2:P (Mpc/h)^3        
       1.218337023032e-05       4.402493198572e+01 
       1.533795438424e-05       5.463969578930e+01 
       1.930934053926e-05       6.781374409366e+01 
       2.430901948987e-05       8.416406767418e+01 
       3.060324237159e-05       1.044563959290e+02 
       3.852719950489e-05       1.296410166399e+02 
       4.850287050197e-05       1.608971271689e+02 
       6.106149621990e-05       1.996878902246e+02 
       7.687186927340e-05       2.478285485773e+02 
       9.677594968041e-05       3.075706479718e+02 
       1.218337023032e-04       3.817058976231e+02 
       1.533795438424e-04       4.736938541042e+02 
       1.930934053926e-04       5.878179821772e+02 
       2.430901948987e-04       7.293747949008e+02 
       3.060324237159e-04       9.049001587320e+02 
       3.852719950489e-04       1.122434952335e+03 
       4.850287050197e-04       1.391828688102e+03 
       6.106149621990e-04       1.725074257677e+03 
       7.687186927340e-04       2.136659942111e+03 
       9.677594968041e-04       2.643911536323e+03 
       1.218337023032e-03       3.267258475030e+03 
       1.533795438424e-03       4.030158031811e+03 
       1.930934053926e-03       4.958768903693e+03 
       2.430901948987e-03       6.081109618970e+03 
       3.060324237159e-03       7.424478824150e+03 
       3.852719950489e-03       9.011798723338e+03 
       4.850287050197e-03       1.085571616210e+04 
       6.106149621990e-03       1.294972367581e+04 
       7.687186927340e-03       1.525496783482e+04 
       9.677594968041e-03       1.768553326016e+04 
       1.218337023032e-02       2.008649682830e+04 
       1.533795438424e-02       2.221608208941e+04 
       1.930934053880e-02       2.374053097834e+04 
       2.430901800634e-02       2.427595719967e+04 
       3.060257513362e-02       2.353684480169e+04 
       3.846705694063e-02       2.160782950303e+04 
       4.716396204137e-02       1.936793783464e+04 
       5.380039890908e-02       1.796009856466e+04 
       5.878900983633e-02       1.709323935814e+04 
       6.302045881910e-02       1.645229617313e+04 
       6.685573716516e-02       1.591520910337e+04 
       7.046457424096e-02       1.542342750902e+04 
       7.394047316562e-02       1.494543940420e+04 
       7.734113551315e-02       1.446286499920e+04 
       8.070529895589e-02       1.396582420752e+04 
       8.406074353845e-02       1.345128909871e+04 
       8.742849647127e-02       1.292041235299e+04 
       9.082521558219e-02       1.237828318171e+04 
       9.426462412820e-02       1.183300803681e+04 
       9.775841741391e-02       1.129435524341e+04 
       1.013168588168e-01       1.077288335764e+04 
       1.049491846502e-01       1.027871516712e+04 
       1.086638867094e-01       9.820233361420e+03 
       1.124689138721e-01       9.403120523081e+03 
       1.163718185280e-01       9.029640281410e+03 
       1.203798644096e-01       8.697986118137e+03 
       1.245001067963e-01       8.402475781238e+03 
       1.287394525530e-01       8.133644374200e+03 
       1.331047052219e-01       7.879410409630e+03 
       1.376025989202e-01       7.626285585954e+03 
