# Matter power spectrum P(k) at redshift z=0
# for k=1.3365e-05 to 0.138672 h/Mpc,
# number of wavenumbers equal to 58
#    1:k (h/Mpc)              2:P (Mpc/h)^3        
       1.336498729840e-05       2.563761593020e+01 
       1.682552213826e-05       3.194679523255e+01 
       2.118207738656e-05       3.980859765280e+01 
       2.666665549653e-05       4.960506760694e+01 
       3.357133025214e-05       6.181228202578e+01 
       4.226380076216e-05       7.702340894441e+01 
       5.320697277849e-05       9.597751321794e+01 
       6.698361011548e-05       1.195953705391e+02 
       8.432736894809e-05       1.490240101161e+02 
       1.061618676785e-04       1.856920838302e+02 
       1.336498729840e-04       2.313785276570e+02 
       1.682552213826e-04       2.882975216324e+02 
       2.118207738656e-04       3.592031896536e+02 
       2.666665549653e-04       4.475178233772e+02 
       3.357133025214e-04       5.574874839270e+02 
       4.226380076216e-04       6.943683249700e+02 
       5.320697277849e-04       8.646455568416e+02 
       6.698361011548e-04       1.076284770883e+03 
       8.432736894809e-04       1.339011654723e+03 
       1.061618676785e-03       1.664609404624e+03 
       1.336498729840e-03       2.067201824636e+03 
       1.682552213826e-03       2.563319317143e+03 
       2.118207738656e-03       3.172020578719e+03 
       2.666665549653e-03       3.914622360173e+03 
       3.357133025214e-03       4.813415806407e+03 
       4.226380076216e-03       5.889779399890e+03 
       5.320697277849e-03       7.160779757240e+03 
       6.698361011548e-03       8.633723769630e+03 
       8.432736894809e-03       1.029738271038e+04 
       1.061618676785e-02       1.211108346109e+04 
       1.336498729840e-02       1.398886426994e+04 
       1.682552213826e-02       1.578210467419e+04 
       2.118207738541e-02       1.726855235311e+04 
       2.666665246410e-02       1.817252743315e+04 
       3.357017207353e-02       1.824655818636e+04 
       4.217248817725e-02       1.745679181458e+04 
       5.142674858269e-02       1.629916353354e+04 
       5.832384544133e-02       1.549671581781e+04 
       6.357731908383e-02       1.495370864687e+04 
       6.806970728074e-02       1.452517098574e+04 
       7.215940731766e-02       1.414927090356e+04 
       7.601779966056e-02       1.379479887136e+04 
       7.974046037929e-02       1.344391211225e+04 
       8.338689645796e-02       1.308610637718e+04 
       8.699733034389e-02       1.271553077411e+04 
       9.060076518960e-02       1.233052109161e+04 
       9.421925449737e-02       1.193151198293e+04 
       9.787033741368e-02       1.152222997953e+04 
       1.015685120412e-01       1.110766722192e+04 
       1.053261701485e-01       1.069439740212e+04 
       1.091542137064e-01       1.028987262724e+04 
       1.130624748359e-01       9.900870161026e+03 
       1.170600095453e-01       9.533469593971e+03 
       1.211553077018e-01       9.191900470165e+03 
       1.253564457624e-01       8.878318175317e+03 
       1.296711993678e-01       8.591873766679e+03 
       1.341071271515e-01       8.329070686708e+03 
       1.386716335041e-01       8.083654554545e+03 
