# Matter power spectrum P(k) at redshift z=0
# for k=1.19267e-05 to 0.153187 h/Mpc,
# number of wavenumbers equal to 63
#    1:k (h/Mpc)              2:P (Mpc/h)^3        
       1.192668505918e-05       4.364495718057e+01 
       1.501480689947e-05       5.427297115447e+01 
       1.890252195892e-05       6.748898312865e+01 
       2.379686524109e-05       8.392310656743e+01 
       2.995847837305e-05       1.043589152455e+02 
       3.771548972251e-05       1.297705922571e+02 
       4.748098842993e-05       1.613693922135e+02 
       5.977502291155e-05       2.006610289193e+02 
       7.525229533393e-05       2.495170171666e+02 
       9.473702689172e-05       3.102628707400e+02 
       1.192668505918e-04       3.857870084233e+02 
       1.501480689947e-04       4.796745725052e+02 
       1.890252195892e-04       5.963708275805e+02 
       2.379686524109e-04       7.413785677226e+02 
       2.995847837305e-04       9.214928881775e+02 
       3.771548972251e-04       1.145073892671e+03 
       4.748098842993e-04       1.422352865277e+03 
       5.977502291155e-04       1.765760273779e+03 
       7.525229533393e-04       2.190255219109e+03 
       9.473702689172e-04       2.713620233059e+03 
       1.192668505918e-03       3.356637791742e+03 
       1.501480689947e-03       4.142946819565e+03 
       1.890252195892e-03       5.098187960987e+03 
       2.379686524109e-03       6.248992171040e+03 
       2.995847837305e-03       7.619729689478e+03 
       3.771548972251e-03       9.228142840997e+03 
       4.748098842993e-03       1.107873869780e+04 
       5.977502291155e-03       1.315325498721e+04 
       7.525229533393e-03       1.539746043946e+04 
       9.473702689172e-03       1.770727142832e+04 
       1.192668505918e-02       1.990945945186e+04 
       1.501480689947e-02       2.174782419825e+04 
       1.890252195881e-02       2.288541627560e+04 
       2.379686472463e-02       2.295734116658e+04 
       2.995817444457e-02       2.172249781258e+04 
       3.768137669531e-02       1.933724782079e+04 
       4.654434096189e-02       1.671903107018e+04 
       5.363795306244e-02       1.511824328767e+04 
       5.886365417321e-02       1.421671307567e+04 
       6.323426525483e-02       1.359110738541e+04 
       6.716592657901e-02       1.308714386964e+04 
       7.084894983164e-02       1.263517180712e+04 
       7.438605284636e-02       1.219879932886e+04 
       7.783969503140e-02       1.175826483149e+04 
       8.125133994338e-02       1.130351003059e+04 
       8.465045640472e-02       1.083060785448e+04 
       8.805918386070e-02       1.034174547119e+04 
       9.149494993579e-02       9.842928554861e+03 
       9.497203336468e-02       9.342696171760e+03 
       9.850254504443e-02       8.851485867816e+03 
       1.020970694900e-01       8.380292413539e+03 
       1.057650985989e-01       7.939289817000e+03 
       1.095153332442e-01       7.536383143923e+03 
       1.133558978162e-01       7.177007693343e+03 
       1.172944956766e-01       6.862642037879e+03 
       1.213385234292e-01       6.591105521817e+03 
       1.254951558062e-01       6.355721755227e+03 
       1.297714091646e-01       6.146925764773e+03 
       1.341741891602e-01       5.952107033513e+03 
       1.387103265839e-01       5.757994773254e+03 
       1.433866043080e-01       5.552114512374e+03 
       1.482097775951e-01       5.326150378463e+03 
       1.531865895635e-01       5.076707294202e+03 
