# Matter power spectrum P(k) at redshift z=0
# for k=1.7433e-05 to 0.19732 h/Mpc,
# number of wavenumbers equal to 59
#    1:k (h/Mpc)              2:P (Mpc/h)^3        
       1.743304841017e-05       7.018770297595e+00 
       2.194690764860e-05       8.801783778927e+00 
       2.762951974912e-05       1.103774056526e+01 
       3.478350452784e-05       1.384169854063e+01 
       4.378983776135e-05       1.735793733049e+01 
       5.512813953611e-05       2.176737743257e+01 
       6.940221576695e-05       2.729687441578e+01 
       8.737221306383e-05       3.423086554389e+01 
       1.099950993108e-04       4.292594770867e+01 
       1.384756256951e-04       5.382911578098e+01 
       1.743304841017e-04       6.750053860854e+01 
       2.194690764860e-04       8.464194154679e+01 
       2.762951974912e-04       1.061318468233e+02 
       3.478350452784e-04       1.330690900002e+02 
       4.378983776135e-04       1.668261207163e+02 
       5.512813953611e-04       2.091135179017e+02 
       6.940221576695e-04       2.620568267119e+02 
       8.737221306383e-04       3.282861843159e+02 
       1.099950993108e-03       4.110381850919e+02 
       1.384756256951e-03       5.142671980247e+02 
       1.743304841017e-03       6.427566031197e+02 
       2.194690764860e-03       8.021791371904e+02 
       2.762951974912e-03       9.991239369331e+02 
       3.478350452784e-03       1.241104030746e+03 
       4.378983776135e-03       1.536147912986e+03 
       5.512813953611e-03       1.892229993398e+03 
       6.940221576695e-03       2.316190881317e+03 
       8.737221306383e-03       2.811998787146e+03 
       1.099950993108e-02       3.377794043413e+03 
       1.384756256951e-02       4.002231219507e+03 
       1.743304841017e-02       4.658864638952e+03 
       2.194690764860e-02       5.299925878571e+03 
       2.762951974900e-02       5.851324777641e+03 
       3.478350392244e-02       6.215646952513e+03 
       4.378946061308e-02       6.296180288689e+03 
       5.508379799070e-02       6.055893805766e+03 
       6.813096111340e-02       5.621399237175e+03 
       7.869123952883e-02       5.289522297345e+03 
       8.644068579031e-02       5.080304112475e+03 
       9.290202987749e-02       4.924575551887e+03 
       9.870487496314e-02       4.793103391458e+03 
       1.041354837225e-01       4.671938106827e+03 
       1.093476863116e-01       4.553285823147e+03 
       1.144347278439e-01       4.432580017149e+03 
       1.194583615145e-01       4.307189457254e+03 
       1.244623930048e-01       4.176024822270e+03 
       1.294796810116e-01       4.039142436745e+03 
       1.345360564516e-01       3.897605779285e+03 
       1.396526585606e-01       3.753263439253e+03 
       1.448473992114e-01       3.608588807384e+03 
       1.501359192483e-01       3.466183144063e+03 
       1.555322345651e-01       3.328945716155e+03 
       1.610491849651e-01       3.199271511118e+03 
       1.666987532576e-01       3.079059782390e+03 
       1.724922963548e-01       2.969371835841e+03 
       1.784407150794e-01       2.870291481673e+03 
       1.845545802713e-01       2.780779406807e+03 
       1.908442271043e-01       2.698745499119e+03 
       1.973198258933e-01       2.621242880115e+03 
