# Matter power spectrum P(k) at redshift z=0
# for k=1.08863e-05 to 0.12673 h/Mpc,
# number of wavenumbers equal to 62
#    1:k (h/Mpc)              2:P (Mpc/h)^3        
       1.088626089788e-05       5.152227342529e+01 
       1.370499048377e-05       6.408622762363e+01 
       1.725356078841e-05       7.971387330682e+01 
       2.172094612046e-05       9.915229441084e+01 
       2.734505103926e-05       1.233306232173e+02 
       3.442537964014e-05       1.534044515665e+02 
       4.333898523963e-05       1.908109653864e+02 
       5.456054983954e-05       2.373372801887e+02 
       6.868766267446e-05       2.952054004494e+02 
       8.647264401763e-05       3.671773102256e+02 
       1.088626089788e-04       4.566848906056e+02 
       1.370499048377e-04       5.679897491118e+02 
       1.725356078841e-04       7.063788630436e+02 
       2.172094612046e-04       8.784016067174e+02 
       2.734505103926e-04       1.092153099557e+03 
       3.442537964014e-04       1.357605778363e+03 
       4.333898523963e-04       1.686986051650e+03 
       5.456054983954e-04       2.095185088346e+03 
       6.868766267446e-04       2.600183078066e+03 
       8.647264401763e-04       3.223448475830e+03 
       1.088626089788e-03       3.990220730640e+03 
       1.370499048377e-03       4.929470922971e+03 
       1.725356078841e-03       6.073176800766e+03 
       2.172094612046e-03       7.454832980821e+03 
       2.734505103926e-03       9.106642863357e+03 
       3.442537964014e-03       1.105423196908e+04 
       4.333898523963e-03       1.330915860872e+04 
       5.456054983954e-03       1.585779106644e+04 
       6.868766267446e-03       1.864604768326e+04 
       8.647264401763e-03       2.156264642633e+04 
       1.088626089788e-02       2.441620464533e+04 
       1.370499048377e-02       2.692177015451e+04 
       1.725356078638e-02       2.869907387063e+04 
       2.172094168320e-02       2.934242916134e+04 
       2.734359975736e-02       2.857933322856e+04 
       3.432466798353e-02       2.656582990005e+04 
       4.161434128716e-02       2.432954109719e+04 
       4.695166130688e-02       2.289649718265e+04 
       5.106920815355e-02       2.191622460383e+04 
       5.461628772749e-02       2.113142659126e+04 
       5.785844477929e-02       2.043687973066e+04 
       6.092469959965e-02       1.978295102851e+04 
       6.388783383248e-02       1.914271119136e+04 
       6.679354219652e-02       1.850240741845e+04 
       6.967291016173e-02       1.785537232349e+04 
       7.254846914018e-02       1.720101978414e+04 
       7.543742619584e-02       1.654236379696e+04 
       7.835351703201e-02       1.588588512819e+04 
       8.130813229459e-02       1.523961741236e+04 
       8.431103486806e-02       1.461207594074e+04 
       8.737083449830e-02       1.401190850310e+04 
       9.049531192059e-02       1.344627932273e+04 
       9.369164606135e-02       1.291985526613e+04 
       9.696657673149e-02       1.243410284047e+04 
       1.003265231292e-01       1.198730081928e+04 
       1.037776712902e-01       1.157410286512e+04 
       1.073260392258e-01       1.118610847600e+04 
       1.109775257242e-01       1.081277189987e+04 
       1.147379470129e-01       1.044303462153e+04 
       1.186130643214e-01       1.006705540515e+04 
       1.226086046124e-01       9.677474625099e+03 
       1.267302762402e-01       9.272228128316e+03 
