# Matter power spectrum P(k) at redshift z=0
# for k=1.25531e-05 to 0.121537 h/Mpc,
# number of wavenumbers equal to 56
#    1:k (h/Mpc)              2:P (Mpc/h)^3        
       1.255312788752e-05       2.778865658748e+01 
       1.580345169509e-05       3.449826521187e+01 
       1.989536693302e-05       4.282791041582e+01 
       2.504678300894e-05       5.316870774220e+01 
       3.153203161365e-05       6.600623102178e+01 
       3.969647588393e-05       8.194322433000e+01 
       4.997490224895e-05       1.017278948131e+02 
       6.291467439313e-05       1.262889413547e+02 
       7.920488236827e-05       1.567789740068e+02 
       9.971303915158e-05       1.946282805346e+02 
       1.255312788752e-04       2.416112566340e+02 
       1.580345169509e-04       2.999283213572e+02 
       1.989536693302e-04       3.723065077502e+02 
       2.504678300894e-04       4.621222464947e+02 
       3.153203161365e-04       5.735499063233e+02 
       3.969647588393e-04       7.117391523784e+02 
       4.997490224895e-04       8.830229645913e+02 
       6.291467439313e-04       1.095155996523e+03 
       7.920488236827e-04       1.357579946567e+03 
       9.971303915158e-04       1.681706407221e+03 
       1.255312788752e-03       2.081145663359e+03 
       1.580345169509e-03       2.571647660741e+03 
       1.989536693302e-03       3.171828516393e+03 
       2.504678300894e-03       3.902080600973e+03 
       3.153203161365e-03       4.783852731624e+03 
       3.969647588393e-03       5.837764971378e+03 
       4.997490224895e-03       7.080381439344e+03 
       6.291467439313e-03       8.518913013418e+03 
       7.920488236827e-03       1.014263627458e+04 
       9.971303915158e-03       1.191209897759e+04 
       1.255312788752e-02       1.374288184296e+04 
       1.580345169509e-02       1.548613604612e+04 
       1.989536693183e-02       1.691958472814e+04 
       2.504677995097e-02       1.776148135306e+04 
       3.153088536890e-02       1.775996282150e+04 
       3.960748451713e-02       1.688380574802e+04 
       4.826658167388e-02       1.566132427737e+04 
       5.470466314625e-02       1.483542707852e+04 
       5.961604309838e-02       1.428814420155e+04 
       6.381971182509e-02       1.386522176839e+04 
       6.764846326150e-02       1.350132560651e+04 
       7.126174264018e-02       1.316264834146e+04 
       7.474859396100e-02       1.283062472568e+04 
       7.816451345968e-02       1.249264055096e+04 
       8.154704181775e-02       1.214190277417e+04 
       8.492326544760e-02       1.177558995191e+04 
       8.831379120229e-02       1.139346507771e+04 
       9.173501505928e-02       1.099843306582e+04 
       9.520049541615e-02       1.059528916220e+04 
       9.872182475017e-02       1.019068708262e+04 
       1.023092047862e-01       9.792140254080e+03 
       1.059718383898e-01       9.407052403397e+03 
       1.097182037524e-01       9.042481927341e+03 
       1.135562504281e-01       8.703800210545e+03 
       1.174935419521e-01       8.394122784873e+03 
       1.215373609926e-01       8.113953631320e+03 
