# Matter power spectrum P(k) at redshift z=0
# for k=1.33448e-05 to 0.151486 h/Mpc,
# number of wavenumbers equal to 60
#    1:k (h/Mpc)              2:P (Mpc/h)^3        
       1.334476634011e-05       1.871753097161e+01 
       1.680006546003e-05       2.347568500166e+01 
       2.115002932743e-05       2.944337893314e+01 
       2.662630938050e-05       3.692807670907e+01 
       3.352053750140e-05       4.631537703361e+01 
       4.219985647751e-05       5.808885637111e+01 
       5.312647169361e-05       7.285494591062e+01 
       6.688226525404e-05       9.137408867056e+01 
       8.419978332667e-05       1.145997252939e+02 
       1.060012468975e-04       1.437270686195e+02 
       1.334476634011e-04       1.802539660410e+02 
       1.680006546003e-04       2.260566614913e+02 
       2.115002932743e-04       2.834837088735e+02 
       2.662630938050e-04       3.554716114686e+02 
       3.352053750140e-04       4.456858350996e+02 
       4.219985647751e-04       5.586903009007e+02 
       5.312647169361e-04       7.001471304601e+02 
       6.688226525404e-04       8.770460393331e+02 
       8.419978332667e-04       1.097959250394e+03 
       1.060012468975e-03       1.373311042359e+03 
       1.334476634011e-03       1.715630558769e+03 
       1.680006546003e-03       2.139651135896e+03 
       2.115002932743e-03       2.662279231958e+03 
       2.662630938050e-03       3.302375743622e+03 
       3.352053750140e-03       4.079501122584e+03 
       4.219985647751e-03       5.012064870015e+03 
       5.312647169361e-03       6.114091380854e+03 
       6.688226525404e-03       7.390111288114e+03 
       8.419978332667e-03       8.827121241199e+03 
       1.060012468975e-02       1.038477002459e+04 
       1.334476634011e-02       1.198152791304e+04 
       1.680006546003e-02       1.347870203537e+04 
       2.115002932703e-02       1.467413310942e+04 
       2.662630801748e-02       1.532000523201e+04 
       3.351989564565e-02       1.520164787943e+04 
       4.213978867761e-02       1.430642933906e+04 
       5.173942747176e-02       1.309613960799e+04 
       5.911941081292e-02       1.228599842042e+04 
       6.464689701791e-02       1.177598970645e+04 
       6.932447176699e-02       1.139343639151e+04 
       7.355876786247e-02       1.106840560530e+04 
       7.754006807170e-02       1.076732234471e+04 
       8.137283512763e-02       1.047138654227e+04 
       8.512137229974e-02       1.016973402214e+04 
       8.882876663618e-02       9.856574328791e+03 
       9.252586978227e-02       9.529784361958e+03 
       9.623600400712e-02       9.190131099651e+03 
       9.997762511281e-02       8.840982444381e+03 
       1.037659232415e-01       8.487355627390e+03 
       1.076138332360e-01       8.135729930133e+03 
       1.115326982474e-01       7.792998953149e+03 
       1.155327201577e-01       7.465839783141e+03 
       1.196232737206e-01       7.160040628962e+03 
       1.238131305906e-01       6.879594258791e+03 
       1.281106219754e-01       6.626378704186e+03 
       1.325237583769e-01       6.399667497147e+03 
       1.370603186352e-01       6.195972725742e+03 
       1.417279165761e-01       6.009472272633e+03 
       1.465340510642e-01       5.832277019501e+03 
       1.514861436293e-01       5.655723984458e+03 
