# Matter power spectrum P(k) at redshift z=0
# for k=1.59356e-05 to 0.161854 h/Mpc,
# number of wavenumbers equal to 58
#    1:k (h/Mpc)              2:P (Mpc/h)^3        
       1.593557485920e-05       1.085345790682e+01 
       2.006170014179e-05       1.358431747432e+01 
       2.525618411230e-05       1.700228853602e+01 
       3.179565198392e-05       2.128024682332e+01 
       4.002835426712e-05       2.663456191887e+01 
       5.039271237918e-05       3.333602034624e+01 
       6.344066618339e-05       4.172351825291e+01 
       7.986706679942e-05       5.222115129453e+01 
       1.005466799592e-04       6.535959273300e+01 
       1.265807704722e-04       8.180278880323e+01 
       1.593557485920e-04       1.023812232650e+02 
       2.006170014179e-04       1.281333592463e+02 
       2.525618411230e-04       1.603569745967e+02 
       3.179565198392e-04       2.006725800505e+02 
       4.002835426712e-04       2.511010515329e+02 
       5.039271237918e-04       3.141577512556e+02 
       6.344066618339e-04       3.929648856811e+02 
       7.986706679942e-04       4.913831826492e+02 
       1.005466799592e-03       6.141625455797e+02 
       1.265807704722e-03       7.671083572743e+02 
       1.593557485920e-03       9.572510081298e+02 
       2.006170014179e-03       1.192986719268e+03 
       2.525618411230e-03       1.484136556222e+03 
       3.179565198392e-03       1.841784986730e+03 
       4.002835426712e-03       2.278160896745e+03 
       5.039271237918e-03       2.805647098455e+03 
       6.344066618339e-03       3.435425364201e+03 
       7.986706679942e-03       4.175138229709e+03 
       1.005466799592e-02       5.025013415238e+03 
       1.265807704722e-02       5.972923709533e+03 
       1.593557485920e-02       6.987185187097e+03 
       2.006170014179e-02       8.008487438947e+03 
       2.525618410881e-02       8.944387218092e+03 
       3.179564465786e-02       9.673523721087e+03 
       4.002603363410e-02       1.007397862134e+04 
       5.023587447571e-02       1.008663399493e+04 
       6.082704208378e-02       9.837053276328e+03 
       6.855795219222e-02       9.592146681440e+03 
       7.453778535050e-02       9.386742328223e+03 
       7.969678531318e-02       9.200000268767e+03 
       8.441613802436e-02       9.020183925688e+03 
       8.888165778647e-02       8.840879103731e+03 
       9.319841034251e-02       8.658419743068e+03 
       9.743247252188e-02       8.470858208508e+03 
       1.016288549422e-01       8.277531698554e+03 
       1.058202172072e-01       8.078720010473e+03 
       1.100315235879e-01       7.875386412184e+03 
       1.142827173631e-01       7.669227593227e+03 
       1.185903479411e-01       7.462199554369e+03 
       1.229686079235e-01       7.256501415110e+03 
       1.274300197591e-01       7.054324399256e+03 
       1.319859049238e-01       6.857491003351e+03 
       1.366467129434e-01       6.667349575495e+03 
       1.414222570836e-01       6.484324080818e+03 
       1.463218860698e-01       6.308433793587e+03 
       1.513546108359e-01       6.138457316161e+03 
       1.565291989479e-01       5.972586839632e+03 
       1.618542453504e-01       5.808543373348e+03 
