# Matter power spectrum P(k) at redshift z=0
# for k=8.37587e-06 to 0.117208 h/Mpc,
# number of wavenumbers equal to 65
#    1:k (h/Mpc)              2:P (Mpc/h)^3        
       8.375871507777e-06       1.266084906428e+02 
       1.054459748706e-05       1.570695529396e+02 
       1.327486173361e-05       1.948591442622e+02 
       1.671206077449e-05       2.417401524990e+02 
       2.103923799245e-05       2.998994544251e+02 
       2.648683135349e-05       3.720495411715e+02 
       3.334494506881e-05       4.615544279605e+02 
       4.197879870200e-05       5.725857591898e+02 
       5.284817644255e-05       7.103148904337e+02 
       6.653191229050e-05       8.811500221663e+02 
       8.375871507777e-05       1.093026597396e+03 
       1.054459748706e-04       1.355760899692e+03 
       1.327486173361e-04       1.681475949643e+03 
       1.671206077449e-04       2.085105560254e+03 
       2.103923799245e-04       2.584974828351e+03 
       2.648683135349e-04       3.203440587949e+03 
       3.334494506881e-04       3.967551571543e+03 
       4.197879870200e-04       4.909658161395e+03 
       5.284817644255e-04       6.067872713239e+03 
       6.653191229050e-04       7.486240681388e+03 
       8.375871507777e-04       9.214295668182e+03 
       1.054459748706e-03       1.130497967700e+04 
       1.327486173361e-03       1.381201895866e+04 
       1.671206077449e-03       1.678228292287e+04 
       2.103923799245e-03       2.024569468867e+04 
       2.648683135349e-03       2.420072623944e+04 
       3.334494506881e-03       2.859556313389e+04 
       4.197879870200e-03       3.330152847218e+04 
       5.284817644255e-03       3.808642422665e+04 
       6.653191229050e-03       4.258559473592e+04 
       8.375871507777e-03       4.625686545655e+04 
       1.054459748706e-02       4.839498712110e+04 
       1.327486173357e-02       4.816000097232e+04 
       1.671206059819e-02       4.481411632583e+04 
       2.103911308025e-02       3.823909006591e+04 
       2.647052297682e-02       2.965997145593e+04 
       3.283016987665e-02       2.210331139941e+04 
       3.811508348329e-02       1.834656745345e+04 
       4.196235069226e-02       1.673775165040e+04 
       4.514728959306e-02       1.587310580582e+04 
       4.799681819670e-02       1.530302366853e+04 
       5.065765223791e-02       1.483668473200e+04 
       5.320785168818e-02       1.437694886728e+04 
       5.569439646350e-02       1.387035054172e+04 
       5.814823255799e-02       1.328881655781e+04 
       6.059121813811e-02       1.262116368033e+04 
       6.303969097938e-02       1.187598651762e+04 
       6.550645588639e-02       1.107189094709e+04 
       6.800196471146e-02       1.023580599406e+04 
       7.053505368264e-02       9.400316370469e+03 
       7.311342370008e-02       8.599899106228e+03 
       7.574396411786e-02       7.863959571464e+03 
       7.843297729264e-02       7.217209725503e+03 
       8.118633798565e-02       6.675857457323e+03 
       8.400960867237e-02       6.246373298010e+03 
       8.690812419626e-02       5.925643102937e+03 
       8.988705459824e-02       5.701992627109e+03 
       9.295145208902e-02       5.554142204297e+03 
       9.610628630753e-02       5.453491145447e+03 
       9.935647082388e-02       5.365903958969e+03 
       1.027068830660e-01       5.256141756537e+03 
       1.061623793314e-01       5.093774197138e+03 
       1.097278061999e-01       4.860223059401e+03 
       1.134080094349e-01       4.554547476527e+03 
       1.172078413094e-01       4.194804568350e+03 
