# Matter power spectrum P(k) at redshift z=0
# for k=1.72294e-05 to 0.182259 h/Mpc,
# number of wavenumbers equal to 57
#    1:k (h/Mpc)              2:P (Mpc/h)^3        
       1.722943830843e-05       1.218265791197e+01 
       2.169057771743e-05       1.514299436522e+01 
       2.730681948496e-05       1.882267292671e+01 
       3.437724896490e-05       2.339648297476e+01 
       4.327839230948e-05       2.908167668608e+01 
       5.448426786001e-05       3.614828028691e+01 
       6.859162935196e-05       4.493190016577e+01 
       8.635174522755e-05       5.584962526235e+01 
       1.087104064197e-04       6.941975908358e+01 
       1.368582931683e-04       8.628628357090e+01 
       1.722943830843e-04       1.072491416962e+02 
       2.169057771743e-04       1.333016341564e+02 
       2.730681948496e-04       1.656764325581e+02 
       3.437724896490e-04       2.059018795359e+02 
       4.327839230948e-04       2.558703009254e+02 
       5.448426786001e-04       3.179198986716e+02 
       6.859162935196e-04       3.949313130973e+02 
       8.635174522755e-04       4.904390978961e+02 
       1.087104064197e-03       6.087570549502e+02 
       1.368582931683e-03       7.551135911525e+02 
       1.722943830843e-03       9.357848018747e+02 
       2.169057771743e-03       1.158055138274e+03 
       2.730681948496e-03       1.430532691484e+03 
       3.437724896490e-03       1.762800014483e+03 
       4.327839230948e-03       2.165043563492e+03 
       5.448426786001e-03       2.647275995347e+03 
       6.859162935196e-03       3.217941449054e+03 
       8.635174522755e-03       3.881671513277e+03 
       1.087104064197e-02       4.635435560725e+03 
       1.368582931683e-02       5.463778545960e+03 
       1.722943830843e-02       6.331366139608e+03 
       2.169057771743e-02       7.174613672821e+03 
       2.730681948483e-02       7.894726971953e+03 
       3.437724834966e-02       8.361327910251e+03 
       4.327801177782e-02       8.444032472521e+03 
       5.443978948199e-02       8.091709363663e+03 
       6.732335323604e-02       7.477094387534e+03 
       7.773630028948e-02       7.010951168124e+03 
       8.538128632942e-02       6.718594756066e+03 
       9.175803806175e-02       6.503040505220e+03 
       9.748610800433e-02       6.323366622492e+03 
       1.028473954926e-01       6.159970783826e+03 
       1.079934698190e-01       6.001808593380e+03 
       1.130162421814e-01       5.842220369124e+03 
       1.179766006716e-01       5.677246972220e+03 
       1.229177476414e-01       5.504939859133e+03 
       1.278720956614e-01       5.324964536789e+03 
       1.328651292402e-01       5.138332629798e+03 
       1.379177071607e-01       4.947260108051e+03 
       1.430475058890e-01       4.754776593467e+03 
       1.482699623907e-01       4.564453054745e+03 
       1.535989111521e-01       4.379978167868e+03 
       1.590470267921e-01       4.204848092691e+03 
       1.646261387421e-01       4.041903155810e+03 
       1.703474591596e-01       3.892939045086e+03 
       1.762217504034e-01       3.758485596213e+03 
       1.822594494146e-01       3.637581827744e+03 
