# Matter power spectrum P(k) at redshift z=0
# for k=1.35487e-05 to 0.147754 h/Mpc,
# number of wavenumbers equal to 60
#    1:k (h/Mpc)              2:P (Mpc/h)^3        
       1.354866421580e-05       1.751303645465e+01 
       1.705675767713e-05       2.199232719522e+01 
       2.147318568256e-05       2.761726686789e+01 
       2.703313912795e-05       3.468085364563e+01 
       3.403270580874e-05       4.355103046089e+01 
       4.284463817474e-05       5.468978706331e+01 
       5.393820375731e-05       6.867722798201e+01 
       6.790417537660e-05       8.624169124179e+01 
       8.548629194853e-05       1.082975290860e+02 
       1.076208652941e-04       1.359924377637e+02 
       1.354866421580e-04       1.707666074415e+02 
       1.705675767713e-04       2.144265110255e+02 
       2.147318568256e-04       2.692365908113e+02 
       2.703313912795e-04       3.380325021662e+02 
       3.403270580874e-04       4.243597686819e+02 
       4.284463817474e-04       5.326413897878e+02 
       5.393820375731e-04       6.683769185128e+02 
       6.790417537660e-04       8.383735226457e+02 
       8.548629194853e-04       1.051006633393e+03 
       1.076208652941e-03       1.316501330524e+03 
       1.354866421580e-03       1.647207039786e+03 
       1.705675767713e-03       2.057797881914e+03 
       2.147318568256e-03       2.565243554143e+03 
       2.703313912795e-03       3.188563476791e+03 
       3.403270580874e-03       3.948106199601e+03 
       4.284463817474e-03       4.863687880875e+03 
       5.393820375731e-03       5.951737201061e+03 
       6.790417537660e-03       7.220638841689e+03 
       8.548629194853e-03       8.663342169843e+03 
       1.076208652941e-02       1.024836224183e+04 
       1.354866421580e-02       1.190686526835e+04 
       1.705675767713e-02       1.351878168391e+04 
       2.147318568012e-02       1.490709909625e+04 
       2.703313376490e-02       1.585100242211e+04 
       3.403093802919e-02       1.615150489614e+04 
       4.272117263134e-02       1.576456071302e+04 
       5.180991285315e-02       1.503515120264e+04 
       5.846963001739e-02       1.447661960515e+04 
       6.360406869731e-02       1.405835796957e+04 
       6.802555093030e-02       1.370269286929e+04 
       7.206613926539e-02       1.337432424849e+04 
       7.588704446191e-02       1.305513806299e+04 
       7.957915520824e-02       1.273518555853e+04 
       8.319951063157e-02       1.240897020112e+04 
       8.678690115849e-02       1.207410044951e+04 
       9.036943559848e-02       1.173071117635e+04 
       9.396857574917e-02       1.138045874443e+04 
       9.760145049768e-02       1.102647133454e+04 
       1.012822620722e-01       1.067285584113e+04 
       1.050231814537e-01       1.032408175319e+04 
       1.088349407613e-01       9.984722803235e+03 
       1.127272377496e-01       9.658529603752e+03 
       1.167090193155e-01       9.348692225196e+03 
       1.207886844930e-01       9.056285098697e+03 
       1.249742323003e-01       8.781109454912e+03 
       1.292733708394e-01       8.521146827061e+03 
       1.336935985575e-01       8.272488567203e+03 
       1.382422651259e-01       8.030262737497e+03 
       1.429266171768e-01       7.788988993523e+03 
       1.477538326866e-01       7.543532906659e+03 
