# Matter power spectrum P(k) at redshift z=0
# for k=1.15673e-05 to 0.166332 h/Mpc,
# number of wavenumbers equal to 66
#    1:k (h/Mpc)              2:P (Mpc/h)^3        
       1.156727661935e-05       3.329282526719e+01 
       1.456233848135e-05       4.152598863389e+01 
       1.833289796932e-05       5.179513481572e+01 
       2.307975112541e-05       6.460369243728e+01 
       2.905568518966e-05       8.057954605217e+01 
       3.657894044235e-05       1.005057055428e+02 
       4.605015765938e-05       1.253586370568e+02 
       5.797371369452e-05       1.563558217421e+02 
       7.298458138612e-05       1.950149428839e+02 
       9.188214417614e-05       2.432272993328e+02 
       1.156727661935e-04       3.033485135309e+02 
       1.456233848135e-04       3.783101214543e+02 
       1.833289796932e-04       4.717556907065e+02 
       2.307975112541e-04       5.882047869771e+02 
       2.905568518966e-04       7.332466764806e+02 
       3.657894044235e-04       9.137625221512e+02 
       4.605015765938e-04       1.138169384721e+03 
       5.797371369452e-04       1.416671957371e+03 
       7.298458138612e-04       1.761499379300e+03 
       9.188214417614e-04       2.187090059308e+03 
       1.156727661935e-03       2.710141087034e+03 
       1.456233848135e-03       3.349338982106e+03 
       1.833289796932e-03       4.124543016536e+03 
       2.307975112541e-03       5.055165923492e+03 
       2.905568518966e-03       6.157582841439e+03 
       3.657894044235e-03       7.440951378552e+03 
       4.605015765938e-03       8.901510024514e+03 
       5.797371369452e-03       1.051505308732e+04 
       7.298458138612e-03       1.222747387724e+04 
       9.188214417614e-03       1.394630415203e+04 
       1.156727661935e-02       1.553002293934e+04 
       1.456233848135e-02       1.678476842836e+04 
       1.833289796926e-02       1.747271478650e+04 
       2.307975082478e-02       1.735596699273e+04 
       2.905548340726e-02       1.630375059338e+04 
       3.655373127143e-02       1.446148360235e+04 
       4.528579889378e-02       1.246093193019e+04 
       5.246116916642e-02       1.119667109006e+04 
       5.770155995422e-02       1.047216605916e+04 
       6.205294928948e-02       9.955986694289e+03 
       6.595234124775e-02       9.530361321416e+03 
       6.959692955979e-02       9.145315023731e+03 
       7.309207215414e-02       8.776084582592e+03 
       7.650136896221e-02       8.410213766071e+03 
       7.986680878660e-02       8.042042088781e+03 
       8.321810315961e-02       7.670731505236e+03 
       8.657749292175e-02       7.298694274946e+03 
       8.996243150556e-02       6.930309781792e+03 
       9.338718073341e-02       6.571100910101e+03 
       9.686380926719e-02       6.227160778028e+03 
       1.004028437087e-01       5.903920239465e+03 
       1.040137079208e-01       5.606248144972e+03 
       1.077050279315e-01       5.336586780363e+03 
       1.114848485101e-01       5.095756559701e+03 
       1.153607899111e-01       4.882053667183e+03 
       1.193401629903e-01       4.691830149671e+03 
       1.234300546646e-01       4.519039482839e+03 
       1.276373918137e-01       4.356594544555e+03 
       1.319689892495e-01       4.197080484536e+03 
       1.364315857743e-01       4.033755670877e+03 
       1.410318712920e-01       3.861549587969e+03 
       1.457765072343e-01       3.678818205351e+03 
       1.506721420985e-01       3.487168353413e+03 
       1.557254235774e-01       3.291638748340e+03 
       1.609430085652e-01       3.099352245518e+03 
       1.663315721835e-01       2.917815476430e+03 
