# Matter power spectrum P(k) at redshift z=0
# for k=8.8019e-06 to 0.11873 h/Mpc,
# number of wavenumbers equal to 65
#    1:k (h/Mpc)              2:P (Mpc/h)^3        
       8.801901185166e-06       6.361326675802e+01 
       1.108093707411e-05       7.943226333383e+01 
       1.395007326908e-05       9.918495605044e+01 
       1.756210173484e-05       1.238494236811e+02 
       2.210937615851e-05       1.546468654556e+02 
       2.783405548486e-05       1.931018920250e+02 
       3.504099976318e-05       2.411178131337e+02 
       4.411400505654e-05       3.010702535434e+02 
       5.553624198169e-05       3.759236972421e+02 
       6.991598630630e-05       4.693761130637e+02 
       8.801901185166e-05       5.860377077342e+02 
       1.108093707411e-04       7.316506896458e+02 
       1.395007326908e-04       9.133570087168e+02 
       1.756210173484e-04       1.140019954972e+03 
       2.210937615851e-04       1.422602006604e+03 
       2.783405548486e-04       1.774594099153e+03 
       3.504099976318e-04       2.212478974700e+03 
       4.411400505654e-04       2.756194691706e+03 
       5.553624198169e-04       3.429546363835e+03 
       6.991598630630e-04       4.260486605208e+03 
       8.801901185166e-04       5.281094099768e+03 
       1.108093707411e-03       6.526867552135e+03 
       1.395007326908e-03       8.034638907979e+03 
       1.756210173484e-03       9.839543023811e+03 
       2.210937615851e-03       1.196878118278e+04 
       2.783405548486e-03       1.443313201612e+04 
       3.504099976318e-03       1.721530838152e+04 
       4.411400505654e-03       2.025378319667e+04 
       5.553624198169e-03       2.342480506969e+04 
       6.991598630630e-03       2.652618194565e+04 
       8.801901185166e-03       2.924595736419e+04 
       1.108093707411e-02       3.116738136394e+04 
       1.395007326890e-02       3.179623065843e+04 
       1.756210103900e-02       3.067053804250e+04 
       2.210902585316e-02       2.764738920132e+04 
       2.779943550042e-02       2.330455659893e+04 
       3.419840085187e-02       1.932199486730e+04 
       3.917407374161e-02       1.720198574161e+04 
       4.288159669592e-02       1.607336204780e+04 
       4.600824253100e-02       1.531536976001e+04 
       4.883334796950e-02       1.471287907402e+04 
       5.148672911920e-02       1.416811159115e+04 
       5.403929322521e-02       1.363224264347e+04 
       5.653452872611e-02       1.308133258153e+04 
       5.900149436000e-02       1.250196549942e+04 
       6.146095063839e-02       1.189403130582e+04 
       6.392856229926e-02       1.126251903001e+04 
       6.641670581263e-02       1.061899106965e+04 
       6.893555376060e-02       9.979597680432e+03 
       7.149375812499e-02       9.359678178584e+03 
       7.409889846525e-02       8.775635379672e+03 
       7.675778577777e-02       8.241772986751e+03 
       7.947667422289e-02       7.768037315587e+03 
       8.226141200373e-02       7.359432768447e+03 
       8.511755084432e-02       7.016092242784e+03 
       8.805042654877e-02       6.731634515149e+03 
       9.106521888907e-02       6.495190885754e+03 
       9.416699642227e-02       6.290201127255e+03 
       9.736075014550e-02       6.098798640226e+03 
       1.006514187957e-01       5.900857148995e+03 
       1.040439078738e-01       5.680742251188e+03 
       1.075431039897e-01       5.427881333693e+03 
       1.111538858038e-01       5.140555198618e+03 
       1.148811326238e-01       4.827374188237e+03 
       1.187297315813e-01       4.504150848853e+03 
