# Matter power spectrum P(k) at redshift z=0
# for k=1.18379e-05 to 0.124067 h/Mpc,
# number of wavenumbers equal to 58
#    1:k (h/Mpc)              2:P (Mpc/h)^3        
       1.183794252919e-05       3.367707104192e+01 
       1.490308667336e-05       4.220306067647e+01 
       1.876187452726e-05       5.288755862583e+01 
       2.361980061526e-05       6.627696885161e+01 
       2.973556721607e-05       8.305603967255e+01 
       3.743486120242e-05       1.040828071058e+02 
       4.712769805471e-05       1.304323945613e+02 
       5.933025668044e-05       1.634518671036e+02 
       7.469236782328e-05       2.048288084825e+02 
       9.403211991980e-05       2.566770505552e+02 
       1.183794252919e-04       3.216435865578e+02 
       1.490308667336e-04       4.030416194724e+02 
       1.876187452726e-04       5.050154487284e+02 
       2.361980061526e-04       6.327435464031e+02 
       2.973556721607e-04       7.926863854154e+02 
       3.743486120242e-04       9.928848397546e+02 
       4.712769805471e-04       1.243312840090e+03 
       5.933025668044e-04       1.556284280627e+03 
       7.469236782328e-04       1.946908620356e+03 
       9.403211991980e-04       2.433578779604e+03 
       1.183794252919e-03       3.038379295012e+03 
       1.490308667336e-03       3.787147685241e+03 
       1.876187452726e-03       4.710296953443e+03 
       2.361980061526e-03       5.841345690511e+03 
       2.973556721607e-03       7.215522146227e+03 
       3.743486120242e-03       8.866482048357e+03 
       4.712769805471e-03       1.082071728443e+04 
       5.933025668044e-03       1.308838629785e+04 
       7.469236782328e-03       1.564875528781e+04 
       9.403211991980e-03       1.843188831041e+04 
       1.183794252919e-02       2.129028177048e+04 
       1.490308667336e-02       2.396995108008e+04 
       1.876187452661e-02       2.609216852355e+04 
       2.361979870432e-02       2.718760144643e+04 
       2.973476896778e-02       2.685238942106e+04 
       3.736713065480e-02       2.508570956442e+04 
       4.570692391096e-02       2.283532635145e+04 
       5.199970437427e-02       2.139263740917e+04 
       5.675807112088e-02       2.049554106213e+04 
       6.080921442346e-02       1.983431715465e+04 
       6.448842870151e-02       1.928193903635e+04 
       6.795457051023e-02       1.877583227583e+04 
       7.129564078470e-02       1.828090013390e+04 
       7.456616464380e-02       1.777460515670e+04 
       7.780286012420e-02       1.724490280125e+04 
       8.103212415398e-02       1.668610785487e+04 
       8.427397829814e-02       1.609840579245e+04 
       8.754431166655e-02       1.548690940545e+04 
       9.085623415259e-02       1.486072558715e+04 
       9.422093306869e-02       1.423164903205e+04 
       9.764823715782e-02       1.361357401329e+04 
       1.011470001863e-01       1.302011714505e+04 
       1.047253689195e-01       1.246382763797e+04 
       1.083909744859e-01       1.195405855218e+04 
       1.121510714623e-01       1.149643859960e+04 
       1.160126403470e-01       1.109202469451e+04 
       1.199824638045e-01       1.073580931197e+04 
       1.240671837524e-01       1.041793917958e+04 
