# Matter power spectrum P(k) at redshift z=0
# for k=1.25543e-05 to 0.141977 h/Mpc,
# number of wavenumbers equal to 59
#    1:k (h/Mpc)              2:P (Mpc/h)^3        
       1.255428865574e-05       2.401586135450e+01 
       1.580491301571e-05       3.002532999234e+01 
       1.989720662667e-05       3.753853204324e+01 
       2.504909904604e-05       4.693169780887e+01 
       3.153494733160e-05       5.867521658826e+01 
       3.970014655535e-05       7.335711033684e+01 
       4.997952335048e-05       9.171244587404e+01 
       6.292049201528e-05       1.146600257211e+02 
       7.921220632063e-05       1.433481679536e+02 
       9.972225946132e-05       1.792117568403e+02 
       1.255428865574e-04       2.240431878042e+02 
       1.580491301571e-04       2.800803357759e+02 
       1.989720662667e-04       3.501151371229e+02 
       2.504909904604e-04       4.376266161153e+02 
       3.153494733160e-04       5.469421631607e+02 
       3.970014655535e-04       6.834299623986e+02 
       4.997952335048e-04       8.537235897498e+02 
       6.292049201528e-04       1.065976755671e+03 
       7.921220632063e-04       1.330141895888e+03 
       9.972225946132e-04       1.658258261799e+03 
       1.255428865574e-03       2.064638996617e+03 
       1.580491301571e-03       2.565948216672e+03 
       1.989720662667e-03       3.181447243089e+03 
       2.504909904604e-03       3.931976074220e+03 
       3.153494733160e-03       4.838770170939e+03 
       3.970014655535e-03       5.921017632245e+03 
       4.997952335048e-03       7.191909530216e+03 
       6.292049201528e-03       8.652389084266e+03 
       7.921220632063e-03       1.028138515909e+04 
       9.972225946132e-03       1.202419716718e+04 
       1.255428865574e-02       1.377434836201e+04 
       1.580491301571e-02       1.535608912030e+04 
       1.989720662658e-02       1.651418095176e+04 
       2.504909859634e-02       1.693762677532e+04 
       3.153466940973e-02       1.636682259302e+04 
       3.966768309455e-02       1.481676715651e+04 
       4.905441169198e-02       1.291875361285e+04 
       5.663987389126e-02       1.170722641097e+04 
       6.220927575258e-02       1.103491974101e+04 
       6.685496932214e-02       1.058432249065e+04 
       7.102817286765e-02       1.023438640075e+04 
       7.493420978036e-02       9.929595029361e+03 
       7.868348351489e-02       9.639413234421e+03 
       8.234294541454e-02       9.345686619592e+03 
       8.595695000472e-02       9.037275620078e+03 
       8.955696930958e-02       8.709356177891e+03 
       9.316661574715e-02       8.360799868224e+03 
       9.680445502521e-02       7.994656418375e+03 
       1.004856832154e-01       7.616863306139e+03 
       1.042231781860e-01       7.235594826155e+03 
       1.080281863958e-01       6.860394223509e+03 
       1.119107869380e-01       6.501087705953e+03 
       1.158802139682e-01       6.166627527590e+03 
       1.199450859408e-01       5.864382889829e+03 
       1.241135716389e-01       5.598572623832e+03 
       1.283935121775e-01       5.370649521448e+03 
       1.327925116131e-01       5.178344791464e+03 
       1.373180047120e-01       5.015445119025e+03 
       1.419773078276e-01       4.872793877030e+03 
