# Matter power spectrum P(k) at redshift z=0.5
# for k=2.20891e-07 to 11.0845 h/Mpc,
# number of wavenumbers equal to 139
#    1:k (h/Mpc)              2:P (Mpc/h)^3        
       2.208913456093e-07       4.466611337362e-01 
       2.780857282329e-07       5.571192487026e-01 
       3.500891899297e-07       6.948933627149e-01 
       4.407361775970e-07       8.667386498227e-01 
       5.548539738739e-07       1.081080820501e+00 
       6.985197675448e-07       1.348429240815e+00 
       8.793842860027e-07       1.681892214504e+00 
       1.107079224381e-06       2.097819692792e+00 
       1.393730168443e-06       2.616604923859e+00 
       1.754602326237e-06       3.263684346977e+00 
       2.208913456093e-06       4.070784755224e+00 
       2.780857282329e-06       5.077478872952e+00 
       3.500891899297e-06       6.333125614212e+00 
       4.407361775970e-06       7.899290142698e+00 
       5.548539738739e-06       9.852762366170e+00 
       6.985197675448e-06       1.228932182183e+01 
       8.793842860027e-06       1.532843345930e+01 
       1.107079224381e-05       1.911910437720e+01 
       1.393730168443e-05       2.384718833340e+01 
       1.754602326237e-05       2.974449548068e+01 
       2.208913456093e-05       3.710015262219e+01 
       2.780857282329e-05       4.627476830879e+01 
       3.500891899297e-05       5.771809197816e+01 
       4.407361775970e-05       7.199102250495e+01 
       5.548539738739e-05       8.979302456000e+01 
       6.985197675448e-05       1.119962563047e+02 
       8.793842860027e-05       1.396880016049e+02 
       1.107079224381e-04       1.742233303753e+02 
       1.393730168443e-04       2.172902631705e+02 
       1.754602326237e-04       2.709900439371e+02 
       2.208913456093e-04       3.379353288149e+02 
       2.780857282329e-04       4.213689969021e+02 
       3.500891899297e-04       5.253055922627e+02 
       4.407361775970e-04       6.546957586111e+02 
       5.548539738739e-04       8.156112042372e+02 
       6.985197675448e-04       1.015443926852e+03 
       8.793842860027e-04       1.263108431740e+03 
       1.107079224381e-03       1.569223664906e+03 
       1.393730168443e-03       1.946214695142e+03 
       1.754602326237e-03       2.408185453506e+03 
       2.208913456093e-03       2.970542137381e+03 
       2.780857282329e-03       3.648980120267e+03 
       3.500891899297e-03       4.457699846614e+03 
       4.407361775970e-03       5.406500098308e+03 
       5.548539738739e-03       6.496080849158e+03 
       6.985197675448e-03       7.711087840818e+03 
       8.793842860027e-03       9.010461875896e+03 
       1.107079224381e-02       1.031478111190e+04 
       1.393730168443e-02       1.149278117707e+04 
       1.754602326182e-02       1.235496945997e+04 
       2.208913290520e-02       1.267504293287e+04 
       2.780786718444e-02       1.227418516042e+04 
       3.494805604144e-02       1.119286071079e+04 
       4.277604121776e-02       9.952725909411e+03 
       4.870013432491e-02       9.197881824007e+03 
       5.317248414560e-02       8.747502510913e+03 
       5.697632041890e-02       8.426536552337e+03 
       6.042906731169e-02       8.165972888022e+03 
       6.368080352668e-02       7.932257693663e+03 
       6.681454247324e-02       7.706304372223e+03 
       6.988166299089e-02       7.476542273947e+03 
       7.291673550865e-02       7.236217703926e+03 
       7.594459634914e-02       6.982199083689e+03 
       7.898407284684e-02       6.714336946668e+03 
       8.205009923075e-02       6.434991262677e+03 
       8.515499244716e-02       6.148551721783e+03 
       8.830925938954e-02       5.860876842271e+03 
       9.152212816487e-02       5.578640041566e+03 
       9.480190929438e-02       5.308608353034e+03 
       9.815624797638e-02       5.056905059152e+03 
       1.015923041888e-01       4.828316243770e+03 
       1.051168835661e-01       4.625699852966e+03 
       1.087365338125e-01       4.449549848349e+03 
       1.124576164305e-01       4.297764432365e+03 
       1.162863604238e-01       4.165674717648e+03 
       1.202289026322e-01       4.046403121577e+03 
       1.242913180536e-01       3.931617491263e+03 
       1.284796426466e-01       3.812703070878e+03 
       1.327998905345e-01       3.682263661396e+03 
       1.372580671516e-01       3.535700153190e+03 
       1.418601796163e-01       3.372459598894e+03 
       1.466122454540e-01       3.196499479167e+03 
       1.515203006834e-01       3.015652728479e+03 
       1.565904082120e-01       2.839899826745e+03 
       1.618286674450e-01       2.678933663635e+03 
       1.672412259862e-01       2.539654938595e+03 
       1.728342942907e-01       2.424260958932e+03 
       1.786141641189e-01       2.329445467032e+03 
       1.845872316338e-01       2.247050922835e+03 
       1.907600259810e-01       2.166309394903e+03 
       1.971392441963e-01       2.077374820376e+03 
       2.037317933057e-01       1.975094446508e+03 
       2.105448405187e-01       1.861305668831e+03 
       2.175858724863e-01       1.744173175462e+03 
       2.248627647062e-01       1.634496615260e+03 
       2.323838623181e-01       1.540669804127e+03 
       2.401580737777e-01       1.464748206203e+03 
       2.481949792247e-01       1.401522620471e+03 
       2.565049558178e-01       1.341257947397e+03 
       2.650993229182e-01       1.275163352626e+03 
       2.739905108135e-01       1.200715307686e+03 
       2.831922577464e-01       1.123071069433e+03 
       2.927198414287e-01       1.051060287446e+03 
       3.025903531031e-01       9.905487806599e+02 
       3.128230247252e-01       9.402066091973e+02 
       3.234396232170e-01       8.929614281341e+02 
       3.344649303461e-01       8.422515883898e+02 
       3.459273331194e-01       7.878592793685e+02 
       3.578595584373e-01       7.354625603563e+02 
       3.702995983008e-01       6.900820077401e+02 
       3.832918899512e-01       6.505905489410e+02 
       3.968888418334e-01       6.115959842792e+02 
       4.111528359014e-01       5.705274547082e+02 
       4.261588972405e-01       5.305682604074e+02 
       4.419983163647e-01       4.950670809202e+02 
       4.587836606347e-01       4.621619613111e+02 
       4.766558600051e-01       4.286001415718e+02 
       4.957944749049e-01       3.956700231030e+02 
       5.164329977001e-01       3.654485790803e+02 
       5.388824009118e-01       3.359399949771e+02 
       5.635687540071e-01       3.064918903288e+02 
       5.910959912576e-01       2.784783175375e+02 
       6.223561583529e-01       2.504775678435e+02 
       6.587351224522e-01       2.228004976477e+02 
       7.025244939345e-01       1.947598787281e+02 
       7.578140412445e-01       1.660315262003e+02 
       8.325695492322e-01       1.358312364230e+02 
       9.434374780050e-01       1.036130899008e+02 
       1.122242530581e+00       7.064490041597e+01 
       1.396180592270e+00       4.315956157190e+01 
       1.756775705069e+00       2.540251085782e+01 
       2.211638989093e+00       1.477219123712e+01 
       2.784288503040e+00       8.506735000957e+00 
       3.505211550237e+00       4.855715472008e+00 
       4.412799894308e+00       2.749688389810e+00 
       5.555385924107e+00       1.545883475327e+00 
       6.993816512182e+00       8.634100706125e-01 
       8.804693332612e+00       4.793516062955e-01 
       1.108445217948e+01       2.646712962654e-01 
