# Matter power spectrum P(k) at redshift z=0
# for k=1.649e-07 to 10.4155 h/Mpc,
# number of wavenumbers equal to 140
#    1:k (h/Mpc)              2:P (Mpc/h)^3        
       1.649003697786e-07       1.647277297046e+00 
       2.075972659285e-07       2.065174303698e+00 
       2.613494734964e-07       2.589087405295e+00 
       3.290194935436e-07       3.245911773862e+00 
       4.142110013977e-07       4.069365603722e+00 
       5.214607555043e-07       5.101721038870e+00 
       6.564801963578e-07       6.395974217853e+00 
       8.264596015344e-07       8.018565832907e+00 
       1.040450994193e-06       1.005279186047e+01 
       1.309850196316e-06       1.260307954724e+01 
       1.649003697786e-06       1.580034814517e+01 
       2.075972659285e-06       1.980872956281e+01 
       2.613494734964e-06       2.483399388508e+01 
       3.290194935436e-06       3.113411217515e+01 
       4.142110013977e-06       3.903249858756e+01 
       5.214607555043e-06       4.893461115034e+01 
       6.564801963578e-06       6.134876255775e+01 
       8.264596015344e-06       7.691220760858e+01 
       1.040450994193e-05       9.642384312240e+01 
       1.309850196316e-05       1.208851922679e+02 
       1.649003697786e-05       1.515517639533e+02 
       2.075972659285e-05       1.899973973792e+02 
       2.613494734964e-05       2.381948424585e+02 
       3.290194935436e-05       2.986166086737e+02 
       4.142110013977e-05       3.743610535493e+02 
       5.214607555043e-05       4.693097760756e+02 
       6.564801963578e-05       5.883235921950e+02 
       8.264596015344e-05       7.374855771289e+02 
       1.040450994193e-04       9.244005823463e+02 
       1.309850196316e-04       1.158560693936e+03 
       1.649003697786e-04       1.451784223643e+03 
       2.075972659285e-04       1.818730261374e+03 
       2.613494734964e-04       2.277479246849e+03 
       3.290194935436e-04       2.850150668129e+03 
       4.142110013977e-04       3.563503400777e+03 
       5.214607555043e-04       4.449437961524e+03 
       6.564801963578e-04       5.545283315182e+03 
       8.264596015344e-04       6.893623202241e+03 
       1.040450994193e-03       8.541104415477e+03 
       1.309850196316e-03       1.053548395040e+04 
       1.649003697786e-03       1.292023698781e+04 
       2.075972659285e-03       1.572591356796e+04 
       2.613494734964e-03       1.895770222924e+04 
       3.290194935436e-03       2.257923432859e+04 
       4.142110013977e-03       2.648988533201e+04 
       5.214607555043e-03       3.049944772384e+04 
       6.564801963578e-03       3.429887858686e+04 
       8.264596015344e-03       3.743191075925e+04 
       1.040450994193e-02       3.928044360775e+04 
       1.309850196315e-02       3.910588456087e+04 
       1.649003688317e-02       3.623988043070e+04 
       2.075964822625e-02       3.054614839728e+04 
       2.612333655816e-02       2.308993161324e+04 
       3.249128259700e-02       1.650457578795e+04 
       3.796124447060e-02       1.327393602620e+04 
       4.191144401682e-02       1.202109037749e+04 
       4.515263545718e-02       1.143202975527e+04 
       4.803888923686e-02       1.109562605691e+04 
       5.072667313771e-02       1.084360235544e+04 
       5.329823253549e-02       1.058870438297e+04 
       5.580263905565e-02       1.028110796996e+04 
       5.827200652786e-02       9.894072518226e+03 
       6.072890115499e-02       9.418367686819e+03 
       6.319011817881e-02       8.859294569602e+03 
       6.566877341259e-02       8.234048618923e+03 
       6.817553924793e-02       7.568595101156e+03 
       7.071941403405e-02       6.893936765770e+03 
       7.330822169044e-02       6.242074561931e+03 
       7.594894764302e-02       5.642191941848e+03 
       7.864797130612e-02       5.117611611504e+03 
       8.141123082903e-02       4.683886994277e+03 
       8.424434210625e-02       4.348055455102e+03 
       8.715268605502e-02       4.108729963321e+03 
       9.014147334309e-02       3.956532565638e+03 
       9.321579275777e-02       3.874517220829e+03 
       9.638064750462e-02       3.838700247065e+03 
       9.964098249123e-02       3.819383866182e+03 
       1.030017048403e-01       3.784214985143e+03 
       1.064676993378e-01       3.703470844470e+03 
       1.100438401633e-01       3.556850387625e+03 
       1.137350000117e-01       3.339600695998e+03 
       1.175460575576e-01       3.065107361418e+03 
       1.214819041120e-01       2.761983535354e+03 
       1.255474502575e-01       2.466115033120e+03 
       1.297476332043e-01       2.210685174601e+03 
       1.340874255880e-01       2.018021458502e+03 
       1.385718464093e-01       1.895438769197e+03 
       1.432059748104e-01       1.834629260214e+03 
       1.479949673709e-01       1.813276553977e+03 
       1.529440796052e-01       1.799290830890e+03 
       1.580586923451e-01       1.759552475989e+03 
       1.633443436998e-01       1.672572794784e+03 
       1.688067673140e-01       1.538941711934e+03 
       1.744519376863e-01       1.381458157795e+03 
       1.802861233891e-01       1.233164595005e+03 
       1.863159491467e-01       1.120917756105e+03 
       1.925484678973e-01       1.054260114415e+03 
       1.989912442066e-01       1.023069605968e+03 
       2.056524507304e-01       1.002739573657e+03 
       2.125409798667e-01       9.664408417365e+02 
       2.196665733346e-01       9.012148284543e+02 
       2.270399732008e-01       8.164994369450e+02 
       2.346730989144e-01       7.357439278580e+02 
       2.425792562878e-01       6.779653426801e+02 
       2.507733861928e-01       6.449532204969e+02 
       2.592723632017e-01       6.218710268029e+02 
       2.680953577356e-01       5.899952245280e+02 
       2.772642798544e-01       5.433488505291e+02 
       2.868043291758e-01       4.931838077935e+02 
       2.967446843678e-01       4.542063449533e+02 
       3.071193784856e-01       4.286670629573e+02 
       3.179684251132e-01       4.056590064639e+02 
       3.293392879955e-01       3.756343238319e+02 
       3.412888288313e-01       3.424208306625e+02 
       3.538859328752e-01       3.154966730822e+02 
       3.672151150429e-01       2.947774696504e+02 
       3.813815770973e-01       2.724863916238e+02 
       3.965184683542e-01       2.479702214461e+02 
       4.127975918087e-01       2.270411546467e+02 
       4.304456805114e-01       2.083300475653e+02 
       4.497700318734e-01       1.882176789637e+02 
       4.712005765539e-01       1.697582030327e+02 
       4.953623364672e-01       1.520163163280e+02 
       5.232075411428e-01       1.342318027588e+02 
       5.562731956537e-01       1.169298574283e+02 
       5.972231193214e-01       9.949321723905e+01 
       6.510811703970e-01       8.160952081195e+01 
       7.281482291125e-01       6.299388534196e+01 
       8.495687377350e-01       4.391851805205e+01 
       1.043603091352e+00       2.696442923437e+01 
       1.311270632592e+00       1.556263811346e+01 
       1.650740053968e+00       8.870069156985e+00 
       2.078158393064e+00       5.018640707502e+00 
       2.616246410640e+00       2.820800567831e+00 
       3.293659089871e+00       1.575926336850e+00 
       4.146471126025e+00       8.755797518317e-01 
       5.220097869823e+00       4.839997970542e-01 
       6.571713860373e+00       2.662891949241e-01 
       8.273297577864e+00       1.458700451331e-01 
       1.041546456011e+01       7.957999961188e-02 
