# Matter power spectrum P(k) at redshift z=0.5
# for k=1.61107e-07 to 10.1793 h/Mpc,
# number of wavenumbers equal to 140
#    1:k (h/Mpc)              2:P (Mpc/h)^3        
       1.611066027843e-07       1.498824199888e+00 
       2.028211962530e-07       1.872840084175e+00 
       2.553367580134e-07       2.340187714085e+00 
       3.214499332282e-07       2.924157047295e+00 
       4.046814895605e-07       3.653849804135e+00 
       5.094638108905e-07       4.565629729686e+00 
       6.413769379195e-07       5.704934751753e+00 
       8.074457256856e-07       7.128541338961e+00 
       1.016513942710e-06       8.907393896511e+00 
       1.279715233921e-06       1.113014019153e+01 
       1.611066027843e-06       1.390754897085e+01 
       2.028211962530e-06       1.737802987823e+01 
       2.553367580134e-06       2.171453067620e+01 
       3.214499332282e-06       2.713315532178e+01 
       4.046814895605e-06       3.390393205289e+01 
       5.094638108905e-06       4.236426748307e+01 
       6.413769379195e-06       5.293575588926e+01 
       8.074457256856e-06       6.614517894353e+01 
       1.016513942710e-05       8.265073738142e+01 
       1.279715233921e-05       1.032748121500e+02 
       1.611066027843e-05       1.290448683361e+02 
       2.028211962530e-05       1.612445019916e+02 
       2.553367580134e-05       2.014770981832e+02 
       3.214499332282e-05       2.517451230713e+02 
       4.046814895605e-05       3.145487063729e+02 
       5.094638108905e-05       3.930078452852e+02 
       6.413769379195e-05       4.910131770472e+02 
       8.074457256856e-05       6.134105981509e+02 
       1.016513942710e-04       7.662245898107e+02 
       1.279715233921e-04       9.569230477789e+02 
       1.611066027843e-04       1.194721119421e+03 
       2.028211962530e-04       1.490910498162e+03 
       2.553367580134e-04       1.859180632082e+03 
       3.214499332282e-04       2.315867609670e+03 
       4.046814895605e-04       2.880030543310e+03 
       5.094638108905e-04       3.573233764655e+03 
       6.413769379195e-04       4.418922324401e+03 
       8.074457256856e-04       5.441231328557e+03 
       1.016513942710e-03       6.662719079452e+03 
       1.279715233921e-03       8.100161883541e+03 
       1.611066027843e-03       9.758431506045e+03 
       2.028211962530e-03       1.162281123234e+04 
       2.553367580134e-03       1.365039513722e+04 
       3.214499332282e-03       1.576247991312e+04 
       4.046814895605e-03       1.783803728988e+04 
       5.094638108905e-03       1.971314614226e+04 
       6.413769379195e-03       2.118619813392e+04 
       8.074457256856e-03       2.202975623083e+04 
       1.016513942710e-02       2.200987304929e+04 
       1.279715233921e-02       2.092073145581e+04 
       1.611066027650e-02       1.865536172166e+04 
       2.028211542998e-02       1.533884844730e+04 
       2.553230819034e-02       1.149472027147e+04 
       3.205034730315e-02       8.071129638450e+03 
       3.885192830185e-02       6.081601624593e+03 
       4.383025317940e-02       5.324538611709e+03 
       4.767189572308e-02       4.961104249087e+03 
       5.098180648610e-02       4.716516135849e+03 
       5.400743877856e-02       4.503381098941e+03 
       5.686906359961e-02       4.286690431808e+03 
       5.963454352257e-02       4.052362061837e+03 
       6.234649247516e-02       3.797277469090e+03 
       6.503390408044e-02       3.524995598192e+03 
       6.771779586515e-02       3.243209228537e+03 
       7.041422024162e-02       2.961793112505e+03 
       7.313599222018e-02       2.691135177709e+03 
       7.589373967170e-02       2.440738025542e+03 
       7.869657225095e-02       2.218163932185e+03 
       8.155252404187e-02       2.028380326077e+03 
       8.446885586437e-02       1.873494280243e+03 
       8.745226718997e-02       1.752788776737e+03 
       9.050904789467e-02       1.662938026798e+03 
       9.364518879628e-02       1.598308812200e+03 
       9.686646322819e-02       1.551349334291e+03 
       1.001784878011e-01       1.513173746168e+03 
       1.035867679259e-01       1.474492470390e+03 
       1.070967320136e-01       1.426945590223e+03 
       1.107137571864e-01       1.364667201082e+03 
       1.144431886159e-01       1.285644229860e+03 
       1.182903541310e-01       1.192309736416e+03 
       1.222605754169e-01       1.090974711933e+03 
       1.263591769196e-01       9.901407114481e+02 
       1.305914934325e-01       8.982280234097e+02 
       1.349628772501e-01       8.214878917390e+02 
       1.394787057235e-01       7.626892425349e+02 
       1.441443900123e-01       7.207478923445e+02 
       1.489653858087e-01       6.911729098735e+02 
       1.539472067955e-01       6.672267795071e+02 
       1.590954415878e-01       6.417889744444e+02 
       1.644157749050e-01       6.096550647063e+02 
       1.699140137171e-01       5.694211260073e+02 
       1.755961191155e-01       5.238568450657e+02 
       1.814682446780e-01       4.783480240064e+02 
       1.875367821353e-01       4.382119078740e+02 
       1.938084152112e-01       4.063530811423e+02 
       2.002901826145e-01       3.823103400959e+02 
       2.069895513138e-01       3.628865832436e+02 
       2.139145014524e-01       3.439812927878e+02 
       2.210736245664e-01       3.228185914944e+02 
       2.284762371966e-01       2.993304011003e+02 
       2.361325125431e-01       2.757258674258e+02 
       2.440536335658e-01       2.545954693699e+02 
       2.522519719262e-01       2.370574864376e+02 
       2.607412984730e-01       2.222502080862e+02 
       2.695370327232e-01       2.083291833649e+02 
       2.786565411113e-01       1.940565786982e+02 
       2.881194969231e-01       1.796359953973e+02 
       2.979483191098e-01       1.661244083517e+02 
       3.081687130871e-01       1.541738686436e+02 
       3.188103448975e-01       1.434562823704e+02 
       3.299076918699e-01       1.332306450720e+02 
       3.415011298928e-01       1.232247366738e+02 
       3.536383423923e-01       1.137497382894e+02 
       3.663761735381e-01       1.050637245272e+02 
       3.797831055170e-01       9.699385625817e+01 
       3.939426295131e-01       8.928176089640e+01 
       4.089579243985e-01       8.194689387439e+01 
       4.249584959151e-01       7.508149082977e+01 
       4.421098368792e-01       6.860030432206e+01 
       4.606278906614e-01       6.241372063630e+01 
       4.808014305372e-01       5.653515277755e+01 
       5.030280352819e-01       5.092115308196e+01 
       5.278745640923e-01       4.551686614566e+01 
       5.561843062562e-01       4.028898172253e+01 
       5.892789744077e-01       3.517693988505e+01 
       6.293679810927e-01       3.011752732228e+01 
       6.804461181226e-01       2.502673880107e+01 
       7.503997409069e-01       1.981243600295e+01 
       8.557667277145e-01       1.444015401518e+01 
       1.026523018805e+00       9.276385972662e+00 
       1.281853049552e+00       5.368240177662e+00 
       1.613308815719e+00       3.025677160379e+00 
       2.031031392152e+00       1.693114934780e+00 
       2.556917025429e+00       9.417878154579e-01 
       3.218967819160e+00       5.210137612065e-01 
       4.052440387288e+00       2.867941020093e-01 
       5.101720183338e+00       1.571402154191e-01 
       6.422685182668e+00       8.573383096102e-02 
       8.085681588415e+00       4.659027499333e-02 
       1.017927002333e+01       2.522474442231e-02 
