# Matter power spectrum P(k) at redshift z=1
# for k=2.17097e-07 to 10.8958 h/Mpc,
# number of wavenumbers equal to 139
#    1:k (h/Mpc)              2:P (Mpc/h)^3        
       2.170968330917e-07       4.440592092836e-01 
       2.733087199991e-07       5.529563898872e-01 
       3.440752928718e-07       6.885585585085e-01 
       4.331651297669e-07       8.574146118314e-01 
       5.453225893666e-07       1.067679440095e+00 
       6.865204653790e-07       1.329507766904e+00 
       8.642780595824e-07       1.655544570405e+00 
       1.088061612064e-06       2.061535770765e+00 
       1.369788413026e-06       2.567088676431e+00 
       1.724461441939e-06       3.196618915258e+00 
       2.170968330917e-06       3.980529578083e+00 
       2.733087199991e-06       4.956679522211e+00 
       3.440752928718e-06       6.172211737348e+00 
       4.331651297669e-06       7.685830065684e+00 
       5.453225893666e-06       9.570634203740e+00 
       6.865204653790e-06       1.191764985899e+01 
       8.642780595824e-06       1.484022446359e+01 
       1.088061612064e-05       1.847950054720e+01 
       1.369788413026e-05       2.301123076981e+01 
       1.724461441939e-05       2.865426304212e+01 
       2.170968330917e-05       3.568110417052e+01 
       2.733087199991e-05       4.443106949729e+01 
       3.440752928718e-05       5.532664830917e+01 
       4.331651297669e-05       6.889386492009e+01 
       5.453225893666e-05       8.578759817771e+01 
       6.865204653790e-05       1.068230417403e+02 
       8.642780595824e-05       1.330147448541e+02 
       1.088061612064e-04       1.656249633863e+02 
       1.369788413026e-04       2.062233522421e+02 
       1.724461441939e-04       2.567602935709e+02 
       2.170968330917e-04       3.196562748586e+02 
       2.733087199991e-04       3.979095118841e+02 
       3.440752928718e-04       4.952231298903e+02 
       4.331651297669e-04       6.161512362357e+02 
       5.453225893666e-04       7.662597781844e+02 
       6.865204653790e-04       9.522933660349e+02 
       8.642780595824e-04       1.182334085315e+03 
       1.088061612064e-03       1.465930498974e+03 
       1.369788413026e-03       1.814147949787e+03 
       1.724461441939e-03       2.239422025183e+03 
       2.170968330917e-03       2.755044967110e+03 
       2.733087199991e-03       3.374153517028e+03 
       3.440752928718e-03       4.108010911292e+03 
       4.331651297669e-03       4.963216110433e+03 
       5.453225893666e-03       5.937502968550e+03 
       6.865204653790e-03       7.013815580237e+03 
       8.642780595824e-03       8.152545375690e+03 
       1.088061612064e-02       9.282155868544e+03 
       1.369788413026e-02       1.029050754860e+04 
       1.724461441721e-02       1.102378884922e+04 
       2.170967863183e-02       1.130906439025e+04 
       2.732936368546e-02       1.102413239135e+04 
       3.430407534050e-02       1.022723396555e+04 
       4.156606881398e-02       9.348867033803e+03 
       4.687580065432e-02       8.802411168938e+03 
       5.097683339559e-02       8.440209446974e+03 
       5.451200872412e-02       8.157145282027e+03 
       5.774445063285e-02       7.910324616974e+03 
       6.080218846016e-02       7.678565079856e+03 
       6.375751977250e-02       7.450092806309e+03 
       6.665586976192e-02       7.218252774185e+03 
       6.952815861433e-02       6.979738840677e+03 
       7.239680854759e-02       6.733727347017e+03 
       7.527895002468e-02       6.481345618649e+03 
       7.818826224281e-02       6.225240224051e+03 
       8.113609231862e-02       5.969146967358e+03 
       8.413216829923e-02       5.717427548468e+03 
       8.718507108553e-02       5.474572120151e+03 
       9.030255679296e-02       5.244691644732e+03 
       9.349178275894e-02       5.031034535514e+03 
       9.675946940634e-02       4.835568110405e+03 
       1.001120181567e-01       4.658667791554e+03 
       1.035555984534e-01       4.498957103513e+03 
       1.070962125854e-01       4.353343143797e+03 
       1.107397442548e-01       4.217288433163e+03 
       1.144919950648e-01       4.085346126833e+03 
       1.183587119500e-01       3.951947790941e+03 
       1.223456078091e-01       3.812364482861e+03 
       1.264583770902e-01       3.663677570975e+03 
       1.307027077421e-01       3.505521623796e+03 
       1.350842907193e-01       3.340346887945e+03 
       1.396088280848e-01       3.173028935758e+03 
       1.442820406562e-01       3.009823013316e+03 
       1.491096760868e-01       2.856869826358e+03 
       1.540975182304e-01       2.718619325997e+03 
       1.592513986201e-01       2.596597039994e+03 
       1.645772108726e-01       2.488883989755e+03 
       1.700809288233e-01       2.390553011629e+03 
       1.757686291860e-01       2.295099057733e+03 
       1.816465195353e-01       2.196584756002e+03 
       1.877209724121e-01       2.091824950450e+03 
       1.939985663765e-01       1.981670312921e+03 
       2.004861348692e-01       1.870640297966e+03 
       2.071908238163e-01       1.764882467226e+03 
       2.141201590224e-01       1.669331250684e+03 
       2.212821245625e-01       1.585421456025e+03 
       2.286852536258e-01       1.510502634768e+03 
       2.363387335908e-01       1.439346832255e+03 
       2.442525275690e-01       1.367107862897e+03 
       2.524375152541e-01       1.292110491721e+03 
       2.609056567195e-01       1.216628807800e+03 
       2.696701838681e-01       1.144985029525e+03 
       2.787458256434e-01       1.080281958894e+03 
       2.881490749753e-01       1.022203556290e+03 
       2.978985079280e-01       9.675596394646e+02 
       3.080151688786e-01       9.131342194043e+02 
       3.185230401389e-01       8.583872475147e+02 
       3.294496207645e-01       8.054804438983e+02 
       3.408266481530e-01       7.566420736482e+02 
       3.526910086315e-01       7.117331900417e+02 
       3.650859014248e-01       6.686879319142e+02 
       3.780623471576e-01       6.261631100938e+02 
       3.916811721586e-01       5.849458833038e+02 
       4.060156612646e-01       5.462965617525e+02 
       4.211551680848e-01       5.098671768519e+02 
       4.372101264669e-01       4.744548342573e+02 
       4.543191629574e-01       4.400283950768e+02 
       4.726594473947e-01       4.072277919009e+02 
       4.924621930670e-01       3.756772485936e+02 
       5.140366455017e-01       3.448422039776e+02 
       5.378086553858e-01       3.149314712246e+02 
       5.643855395204e-01       2.856624339441e+02 
       5.946710433474e-01       2.567175346499e+02 
       6.300821549900e-01       2.278796835194e+02 
       6.729886259473e-01       1.986742900351e+02 
       7.276774703200e-01       1.685391841491e+02 
       8.026165495728e-01       1.367427875779e+02 
       9.155642868103e-01       1.028011554194e+02 
       1.098626792491e+00       6.870740520307e+01 
       1.372071845023e+00       4.155732024387e+01 
       1.726868465716e+00       2.440685869128e+01 
       2.173994391209e+00       1.416963700009e+01 
       2.736896777767e+00       8.145894034485e+00 
       3.445548902987e+00       4.641705910554e+00 
       4.337689071550e+00       2.623902701484e+00 
       5.460827000636e+00       1.472570093490e+00 
       6.874773880513e+00       8.210122533918e-01 
       8.654827538516e+00       4.550104173801e-01 
       1.089578232293e+01       2.507916660027e-01 
