# Matter power spectrum P(k) at redshift z=1.5
# for k=1.65082e-07 to 10.4294 h/Mpc,
# number of wavenumbers equal to 140
#    1:k (h/Mpc)              2:P (Mpc/h)^3        
       1.650815266519e-07       1.248355672734e+00 
       2.078253289199e-07       1.546565573904e+00 
       2.616365877917e-07       1.916012499525e+00 
       3.293809490261e-07       2.373713703306e+00 
       4.146660468898e-07       2.940751555007e+00 
       5.220336238378e-07       3.643244624696e+00 
       6.572013948604e-07       4.513550737692e+00 
       8.273675366564e-07       5.591757416942e+00 
       1.041594016790e-06       6.927528360722e+00 
       1.311289176510e-06       8.582391002391e+00 
       1.650815266519e-06       1.063257050762e+01 
       2.078253289199e-06       1.317250073152e+01 
       2.616365877917e-06       1.631917381249e+01 
       3.293809490261e-06       2.021752867264e+01 
       4.146660468898e-06       2.504712647180e+01 
       5.220336238378e-06       3.103042019868e+01 
       6.572013948604e-06       3.844299872838e+01 
       8.273675366564e-06       4.762627597285e+01 
       1.041594016790e-05       5.900320746922e+01 
       1.311289176510e-05       7.309775363750e+01 
       1.650815266519e-05       9.055897765506e+01 
       2.078253289199e-05       1.121908704474e+02 
       2.616365877917e-05       1.389892428770e+02 
       3.293809490261e-05       1.721873179398e+02 
       4.146660468898e-05       2.133119929614e+02 
       5.220336238378e-05       2.642531086096e+02 
       6.572013948604e-05       3.273484185505e+02 
       8.273675366564e-05       4.054872055645e+02 
       1.041594016790e-04       5.022354436135e+02 
       1.311289176510e-04       6.219846719385e+02 
       1.650815266519e-04       7.701246170703e+02 
       2.078253289199e-04       9.532348501440e+02 
       2.616365877917e-04       1.179281589750e+03 
       3.293809490261e-04       1.457790174048e+03 
       4.146660468898e-04       1.799941632580e+03 
       5.220336238378e-04       2.218519790195e+03 
       6.572013948604e-04       2.727630667062e+03 
       8.273675366564e-04       3.342134708048e+03 
       1.041594016790e-03       4.076680848228e+03 
       1.311289176510e-03       4.943914562092e+03 
       1.650815266519e-03       5.951243144160e+03 
       2.078253289199e-03       7.096460730580e+03 
       2.616365877917e-03       8.362701564120e+03 
       3.293809490261e-03       9.712872963951e+03 
       4.146660468898e-03       1.108346829860e+04 
       5.220336238378e-03       1.238016587816e+04 
       6.572013948604e-03       1.347528434186e+04 
       8.273675366564e-03       1.420858767671e+04 
       1.041594016790e-02       1.439441399456e+04 
       1.311289176510e-02       1.384507948456e+04 
       1.650815264658e-02       1.243209915440e+04 
       2.078250966428e-02       1.020997445223e+04 
       2.615884872442e-02       7.572418059602e+03 
       3.271042518167e-02       5.291004155700e+03 
       3.885979901233e-02       4.113967901166e+03 
       4.325946825976e-02       3.676819581172e+03 
       4.678058163293e-02       3.469923772011e+03 
       4.987507323315e-02       3.340088217824e+03 
       5.273517455567e-02       3.231448115126e+03 
       5.545868359680e-02       3.118219727665e+03 
       5.810260940626e-02       2.987810474219e+03 
       6.070361859541e-02       2.835297059506e+03 
       6.328712727437e-02       2.661081385667e+03 
       6.587184092188e-02       2.469477345808e+03 
       6.847222926667e-02       2.267504788480e+03 
       7.109997074117e-02       2.063681934657e+03 
       7.376484262762e-02       1.866825571896e+03 
       7.647529435830e-02       1.684965334009e+03 
       7.923883038911e-02       1.524496807197e+03 
       8.206227368079e-02       1.389656797200e+03 
       8.495195155608e-02       1.282325615760e+03 
       8.791382946536e-02       1.202075091594e+03 
       9.095360880639e-02       1.146338731781e+03 
       9.407679932209e-02       1.110607574227e+03 
       9.728877313052e-02       1.088657707615e+03 
       1.005948052457e-01       1.072940679435e+03 
       1.040001040301e-01       1.055330751751e+03 
       1.075098340885e-01       1.028336197508e+03 
       1.111291334982e-01       9.866328759279e+02 
       1.148631268569e-01       9.284700655711e+02 
       1.187169353600e-01       8.563354739670e+02 
       1.226956849356e-01       7.764269588326e+02 
       1.268045133498e-01       6.969647076129e+02 
       1.310485771191e-01       6.259331257299e+02 
       1.354330590195e-01       5.690862168665e+02 
       1.399631769521e-01       5.287956800550e+02 
       1.446441949079e-01       5.037947123612e+02 
       1.494814367592e-01       4.895737223586e+02 
       1.544803036012e-01       4.793648763868e+02 
       1.596462953583e-01       4.659195206782e+02 
       1.649850373726e-01       4.439800783412e+02 
       1.705023127017e-01       4.124656554205e+02 
       1.762041008715e-01       3.749171699824e+02 
       1.820966238778e-01       3.376135383585e+02 
       1.881864002971e-01       3.064270749243e+02 
       1.944803084837e-01       2.842646848005e+02 
       2.009856599941e-01       2.701759899641e+02 
       2.077102846140e-01       2.601281246913e+02 
       2.146626286915e-01       2.491148512710e+02 
       2.218518689153e-01       2.339285165565e+02 
       2.292880442694e-01       2.149879846347e+02 
       2.369822096705e-01       1.956522611828e+02 
       2.449466158267e-01       1.794847027696e+02 
       2.531949212181e-01       1.677446705102e+02 
       2.617424439129e-01       1.588592229416e+02 
       2.706064633601e-01       1.499838831410e+02 
       2.798065855846e-01       1.394492693652e+02 
       2.893651896987e-01       1.280109573924e+02 
       2.993079798719e-01       1.176626458737e+02 
       3.096646756438e-01       1.093958837765e+02 
       3.204698859509e-01       1.023640786226e+02 
       3.317642303547e-01       9.515984921561e+01 
       3.435957977410e-01       8.754789588567e+01 
       3.560220731213e-01       8.043996286015e+01 
       3.691125253473e-01       7.433265711419e+01 
       3.829521466284e-01       6.866906190038e+01 
       3.976463935902e-01       6.295499132704e+01 
       4.133282445469e-01       5.750944026385e+01 
       4.301685443226e-01       5.257326015794e+01 
       4.483916248203e-01       4.782612200215e+01 
       4.682997133704e-01       4.321311338774e+01 
       4.903126223849e-01       3.887879795572e+01 
       5.150353724537e-01       3.466757003164e+01 
       5.433799264052e-01       3.058629746138e+01 
       5.767989960551e-01       2.658172366656e+01 
       6.177699266873e-01       2.260350579703e+01 
       6.708787074071e-01       1.857804150192e+01 
       7.453845193195e-01       1.443505415738e+01 
       8.606157613921e-01       1.019560494073e+01 
       1.046997044196e+00       6.310244663677e+00 
       1.313091344320e+00       3.598246942524e+00 
       1.652943562078e+00       2.017785015430e+00 
       2.080931840105e+00       1.123517769352e+00 
       2.619737972988e+00       6.216737574408e-01 
       3.298054706436e+00       3.420246810443e-01 
       4.152004879420e+00       1.871851742872e-01 
       5.227064452595e+00       1.019501780045e-01 
       6.580484268458e+00       5.527987085661e-02 
       8.284338867473e+00       2.985027095065e-02 
       1.042936472018e+01       1.605644671119e-02 
