# Matter power spectrum P(k) at redshift z=2
# for k=2.21134e-07 to 11.0957 h/Mpc,
# number of wavenumbers equal to 139
#    1:k (h/Mpc)              2:P (Mpc/h)^3        
       2.211340602511e-07       1.115514251543e-01 
       2.783912878633e-07       1.392724202822e-01 
       3.504738667133e-07       1.738821984454e-01 
       4.412204569751e-07       2.170926510155e-01 
       5.554636454894e-07       2.710410813923e-01 
       6.992872986344e-07       3.383959217156e-01 
       8.803505503958e-07       4.224887205098e-01 
       1.108295679180e-06       5.274789296276e-01 
       1.395261594302e-06       6.585596413257e-01 
       1.756530277167e-06       8.222144515714e-01 
       2.211340602511e-06       1.026538154225e+00 
       2.783912878633e-06       1.281637127412e+00 
       3.504738667133e-06       1.600129215127e+00 
       4.412204569751e-06       1.997767826465e+00 
       5.554636454894e-06       2.494221114102e+00 
       6.992872986344e-06       3.114044761506e+00 
       8.803505503958e-06       3.887896470747e+00 
       1.108295679180e-05       4.854052168180e+00 
       1.395261594302e-05       6.060298834498e+00 
       1.756530277167e-05       7.566297378932e+00 
       2.211340602511e-05       9.446532052821e+00 
       2.783912878633e-05       1.179399152886e+01 
       3.504738667133e-05       1.472476221261e+01 
       4.412204569751e-05       1.838375801006e+01 
       5.554636454894e-05       2.295186408979e+01 
       6.992872986344e-05       2.865483636850e+01 
       8.803505503958e-05       3.577437405501e+01 
       1.108295679180e-04       4.466186786926e+01 
       1.395261594302e-04       5.575541566930e+01 
       1.756530277167e-04       6.960077479101e+01 
       2.211340602511e-04       8.687695394304e+01 
       2.783912878633e-04       1.084270734875e+02 
       3.504738667133e-04       1.352948287144e+02 
       4.412204569751e-04       1.687662028674e+02 
       5.554636454894e-04       2.104147914313e+02 
       6.992872986344e-04       2.621471390747e+02 
       8.803505503958e-04       3.262422283757e+02 
       1.108295679180e-03       4.053774657234e+02 
       1.395261594302e-03       5.026305662651e+02 
       1.756530277167e-03       6.214317456037e+02 
       2.211340602511e-03       7.654018685587e+02 
       2.783912878633e-03       9.380170294380e+02 
       3.504738667133e-03       1.142070110027e+03 
       4.412204569751e-03       1.378840183788e+03 
       5.554636454894e-03       1.646847918850e+03 
       6.992872986344e-03       1.940137189856e+03 
       8.803505503958e-03       2.246075943207e+03 
       1.108295679180e-02       2.542717859296e+03 
       1.395261594302e-02       2.796402078311e+03 
       1.756530277136e-02       2.961588337191e+03 
       2.211340495658e-02       2.987731695444e+03 
       2.783861797171e-02       2.840647587879e+03 
       3.499899075466e-02       2.541599589623e+03 
       4.299112203956e-02       2.220157291053e+03 
       4.915072424710e-02       2.029907779753e+03 
       5.375874817342e-02       1.920204829615e+03 
       5.765522489294e-02       1.843041173518e+03 
       6.118097949028e-02       1.780376958416e+03 
       6.449525209807e-02       1.723819958434e+03 
       6.768536383609e-02       1.668807193451e+03 
       7.080502198842e-02       1.612729095600e+03 
       7.389019104942e-02       1.554203626021e+03 
       7.696660972399e-02       1.492745505322e+03 
       8.005372699839e-02       1.428577088290e+03 
       8.316692809195e-02       1.362482485365e+03 
       8.631887197563e-02       1.295663861526e+03 
       8.952033524239e-02       1.229584546419e+03 
       9.278076619453e-02       1.165799904720e+03 
       9.610866083437e-02       1.105784664772e+03 
       9.951182503923e-02       1.050769008369e+03 
       1.029975614989e-01       1.001596753407e+03 
       1.065728054207e-01       9.586167255811e+02 
       1.102442244221e-01       9.216162113944e+02 
       1.140182928094e-01       8.898059877258e+02 
       1.179013471718e-01       8.618684691916e+02 
       1.218996281320e-01       8.360832025308e+02 
       1.260193117318e-01       8.105394731735e+02 
       1.302665330331e-01       7.834304108695e+02 
       1.346474039173e-01       7.533923662424e+02 
       1.391680266684e-01       7.198174068581e+02 
       1.438345046600e-01       6.830432433967e+02 
       1.486529512954e-01       6.443345485118e+02 
       1.536294982360e-01       6.056225309525e+02 
       1.587703038829e-01       5.690482537018e+02 
       1.640815630340e-01       5.364263323065e+02 
       1.695695186076e-01       5.087721528228e+02 
       1.752404763105e-01       4.860157433878e+02 
       1.811008231117e-01       4.669842039554e+02 
       1.871570503798e-01       4.496956042627e+02 
       1.934157825347e-01       4.319509638196e+02 
       1.998838120740e-01       4.120958606058e+02 
       2.065681418480e-01       3.896725406414e+02 
       2.134760354979e-01       3.656229824500e+02 
       2.206150770383e-01       3.418654895814e+02 
       2.279932406728e-01       3.204033390868e+02 
       2.356189720958e-01       3.023964738869e+02 
       2.435012827723e-01       2.876428899120e+02 
       2.516498590162e-01       2.747199270886e+02 
       2.600751881414e-01       2.617626519867e+02 
       2.687887045690e-01       2.475323981858e+02 
       2.778029595795e-01       2.321389069065e+02 
       2.871318194718e-01       2.168661809252e+02 
       2.967906983031e-01       2.031769819714e+02 
       3.067968332596e-01       1.916366245030e+02 
       3.171696132118e-01       1.815643977231e+02 
       3.279309743744e-01       1.716750282104e+02 
       3.391058815720e-01       1.612072157583e+02 
       3.507229199177e-01       1.505326821264e+02 
       3.628150305071e-01       1.406274277104e+02 
       3.754204361952e-01       1.319666891044e+02 
       3.885838214558e-01       1.240630243235e+02 
       4.023578565889e-01       1.161501545785e+02 
       4.168051957448e-01       1.081456154327e+02 
       4.320011379626e-01       1.006051529613e+02 
       4.480372335182e-01       9.377639779905e+01 
       4.650262666616e-01       8.725225825508e+01 
       4.831092903104e-01       8.074760275447e+01 
       5.024658027240e-01       7.452917314328e+01 
       5.233288837392e-01       6.870661928365e+01 
       5.460084367660e-01       6.300381005635e+01 
       5.709282200829e-01       5.744074757683e+01 
       5.986874497702e-01       5.208765352207e+01 
       6.301686123135e-01       4.678467934685e+01 
       6.667377840521e-01       4.155419727119e+01 
       7.106438048543e-01       3.628583335042e+01 
       7.658785917245e-01       3.090574444893e+01 
       8.401728985677e-01       2.528378998924e+01 
       9.496427409782e-01       1.931679359682e+01 
       1.125649079568e+00       1.320832323953e+01 
       1.397812730933e+00       8.059119523445e+00 
       1.758569210758e+00       4.720808949953e+00 
       2.213892384564e+00       2.732926017370e+00 
       2.787125346438e+00       1.567539167115e+00 
       3.508782924475e+00       8.916337032986e-01 
       4.417295988091e+00       5.033566511819e-01 
       5.561046170825e+00       2.822207193078e-01 
       7.000942340612e+00       1.572504847705e-01 
       8.813664219102e+00       8.712033849728e-02 
       1.109574585645e+01       4.801508265408e-02 
