# Matter power spectrum P(k) at redshift z=0
# for k=2.29539e-07 to 11.5169 h/Mpc,
# number of wavenumbers equal to 139
#    1:k (h/Mpc)              2:P (Mpc/h)^3        
       2.295386263736e-07       8.885127270362e-01 
       2.889720097300e-07       1.106862446002e+00 
       3.637942063464e-07       1.378871046814e+00 
       4.579897710330e-07       1.717725061383e+00 
       5.765749610952e-07       2.139851577420e+00 
       7.258648703270e-07       2.665714596387e+00 
       9.138097307833e-07       3.320807093709e+00 
       1.150418291628e-06       4.136886874533e+00 
       1.448290821523e-06       5.153516136139e+00 
       1.823290118884e-06       6.419979370376e+00 
       2.295386263736e-06       7.997672579760e+00 
       2.889720097300e-06       9.963079623235e+00 
       3.637942063464e-06       1.241147996683e+01 
       4.579897710330e-06       1.546156755392e+01 
       5.765749610952e-06       1.926120465074e+01 
       7.258648703270e-06       2.399458948879e+01 
       9.138097307833e-06       2.989118495006e+01 
       1.150418291628e-05       3.723684068669e+01 
       1.448290821523e-05       4.638764696187e+01 
       1.823290118884e-05       5.778719005510e+01 
       2.295386263736e-05       7.198804225235e+01 
       2.889720097300e-05       8.967852132453e+01 
       3.637942063464e-05       1.117160031749e+02 
       4.579897710330e-05       1.391683758023e+02 
       5.765749610952e-05       1.733655914985e+02 
       7.258648703270e-05       2.159637128631e+02 
       9.138097307833e-05       2.690243544462e+02 
       1.150418291628e-04       3.351129751820e+02 
       1.448290821523e-04       4.174200190842e+02 
       1.823290118884e-04       5.199093057460e+02 
       2.295386263736e-04       6.474980924052e+02 
       2.889720097300e-04       8.062724526231e+02 
       3.637942063464e-04       1.003739468511e+03 
       4.579897710330e-04       1.249113682204e+03 
       5.765749610952e-04       1.553629280700e+03 
       7.258648703270e-04       1.930861879840e+03 
       9.138097307833e-04       2.397030089801e+03 
       1.150418291628e-03       2.971206085135e+03 
       1.448290821523e-03       3.675276627861e+03 
       1.823290118884e-03       4.533438193481e+03 
       2.295386263736e-03       5.570976239067e+03 
       2.889720097300e-03       6.811923280405e+03 
       3.637942063464e-03       8.275151833182e+03 
       4.579897710330e-03       9.968433022815e+03 
       5.765749610952e-03       1.187964373478e+04 
       7.258648703270e-03       1.396468900749e+04 
       9.138097307833e-03       1.613224739597e+04 
       1.150418291628e-02       1.822558126730e+04 
       1.448290821523e-02       2.000621758816e+04 
       1.823290118862e-02       2.115319686623e+04 
       2.295386181321e-02       2.131097913795e+04 
       2.889677530148e-02       2.023773694362e+04 
       3.633646376574e-02       1.807685783495e+04 
       4.473233385621e-02       1.572577727940e+04 
       5.129040743909e-02       1.431740720691e+04 
       5.616755052521e-02       1.351389079497e+04 
       6.027506403072e-02       1.295316680293e+04 
       6.398377916806e-02       1.250044243994e+04 
       6.746557720770e-02       1.209382146180e+04 
       7.081415905345e-02       1.169993923888e+04 
       7.408691206613e-02       1.129980107141e+04 
       7.732214114661e-02       1.088333885732e+04 
       8.054718913004e-02       1.044694011860e+04 
       8.378267272118e-02       9.992049505515e+03 
       8.704487097638e-02       9.524105379043e+03 
       9.034715711549e-02       9.051505126389e+03 
       9.370090016286e-02       8.584489640060e+03 
       9.711605603923e-02       8.133947379677e+03 
       1.006015681431e-01       7.710196761390e+03 
       1.041656463740e-01       7.321837189640e+03 
       1.078159659102e-01       6.974757557536e+03 
       1.115598114088e-01       6.671379749463e+03 
       1.154041830977e-01       6.410199296208e+03 
       1.193558756342e-01       6.185685595859e+03 
       1.234215371148e-01       5.988621774608e+03 
       1.276077133877e-01       5.806979870170e+03 
       1.319208813624e-01       5.627401693382e+03 
       1.363674740584e-01       5.437245211664e+03 
       1.409538994900e-01       5.226946689970e+03 
       1.456865550673e-01       4.992198235087e+03 
       1.505718389044e-01       4.735275159258e+03 
       1.556161592481e-01       4.464914713145e+03 
       1.608259431147e-01       4.194511557193e+03 
       1.662076451498e-01       3.938947867936e+03 
       1.717677576794e-01       3.710866272107e+03 
       1.775128228875e-01       3.517383016171e+03 
       1.834494480411e-01       3.358095178228e+03 
       1.895843246659e-01       3.224947213471e+03 
       1.959242525720e-01       3.104249456345e+03 
       2.024761696226e-01       2.980755693385e+03 
       2.092471881452e-01       2.842923717639e+03 
       2.162446389029e-01       2.687441217183e+03 
       2.234761235798e-01       2.520673531292e+03 
       2.309495768064e-01       2.355789263356e+03 
       2.386733388603e-01       2.206634881886e+03 
       2.466562403480e-01       2.081320366619e+03 
       2.549077004164e-01       1.978601830657e+03 
       2.634378403875e-01       1.888795135412e+03 
       2.722576151771e-01       1.799077080763e+03 
       2.813789654861e-01       1.700815934340e+03 
       2.908149945932e-01       1.594586612021e+03 
       3.005801746829e-01       1.489076735031e+03 
       3.106905891102e-01       1.394329591858e+03 
       3.211642189427e-01       1.314350857143e+03 
       3.320212847152e-01       1.244626530169e+03 
       3.432846578128e-01       1.176403927615e+03 
       3.549803606386e-01       1.104371309640e+03 
       3.671381812383e-01       1.030907900378e+03 
       3.797924371434e-01       9.626180763087e+02 
       3.929829360582e-01       9.028376744019e+02 
       4.067561995197e-01       8.483736996321e+02 
       4.211670427305e-01       7.940113761127e+02 
       4.362806441435e-01       7.390626520952e+02 
       4.521752998362e-01       6.872270756721e+02 
       4.689461534072e-01       6.402638878789e+02 
       4.867103448918e-01       5.954994031328e+02 
       5.056142729030e-01       5.509382036225e+02 
       5.258440886029e-01       5.083026345320e+02 
       5.476412839323e-01       4.683986002407e+02 
       5.713265923938e-01       4.293964560151e+02 
       5.973380047430e-01       3.913522124854e+02 
       6.262938825097e-01       3.547753063614e+02 
       6.591031529096e-01       3.185954749826e+02 
       6.971694840615e-01       2.829394234121e+02 
       7.427968305565e-01       2.470868179445e+02 
       8.000604576192e-01       2.105397640681e+02 
       8.768223445374e-01       1.724268083371e+02 
       9.894410712587e-01       1.320393029054e+02 
       1.170083561028e+00       9.060441717060e+01 
       1.451043176514e+00       5.533700538128e+01 
       1.825321555469e+00       3.235317735274e+01 
       2.297923968947e+00       1.868872249816e+01 
       2.892914828629e+00       1.069592698046e+01 
       3.641963991901e+00       6.070622098303e+00 
       4.584961018243e+00       3.419541950803e+00 
       5.772123937952e+00       1.913043471317e+00 
       7.266673505513e+00       1.063578906286e+00 
       9.148199935302e+00       5.879442629735e-01 
       1.151690137073e+01       3.233173378202e-01 
