# Matter power spectrum P(k) at redshift z=1.5
# for k=2.20891e-07 to 11.0845 h/Mpc,
# number of wavenumbers equal to 139
#    1:k (h/Mpc)              2:P (Mpc/h)^3        
       2.208913456093e-07       1.813712660260e-01 
       2.780857282329e-07       2.262238995680e-01 
       3.500891899297e-07       2.821684705007e-01 
       4.407361775970e-07       3.519479855186e-01 
       5.548539738739e-07       4.389837894821e-01 
       6.985197675448e-07       5.475433167077e-01 
       8.793842860027e-07       6.829493264138e-01 
       1.107079224381e-06       8.518408816120e-01 
       1.393730168443e-06       1.062498866992e+00 
       1.754602326237e-06       1.325252006218e+00 
       2.208913456093e-06       1.652983285202e+00 
       2.780857282329e-06       2.061761610305e+00 
       3.500891899297e-06       2.571629671002e+00 
       4.407361775970e-06       3.207586631895e+00 
       5.548539738739e-06       4.000813825845e+00 
       6.985197675448e-06       4.990203531023e+00 
       8.793842860027e-06       6.224265756589e+00 
       1.107079224381e-05       7.763506456329e+00 
       1.393730168443e-05       9.683393656143e+00 
       1.754602326237e-05       1.207805666556e+01 
       2.208913456093e-05       1.506489924131e+01 
       2.780857282329e-05       1.879035190374e+01 
       3.500891899297e-05       2.343704345938e+01 
       4.407361775970e-05       2.923273947981e+01 
       5.548539738739e-05       3.646147829744e+01 
       6.985197675448e-05       4.547743540263e+01 
       8.793842860027e-05       5.672216615251e+01 
       1.107079224381e-04       7.074601365145e+01 
       1.393730168443e-04       8.823461668397e+01 
       1.754602326237e-04       1.100415941155e+02 
       2.208913456093e-04       1.372285775924e+02 
       2.780857282329e-04       1.711137364718e+02 
       3.500891899297e-04       2.133296525647e+02 
       4.407361775970e-04       2.658906548342e+02 
       5.548539738739e-04       3.312682957260e+02 
       6.985197675448e-04       4.124714911141e+02 
       8.793842860027e-04       5.131253338576e+02 
       1.107079224381e-03       6.375398637607e+02 
       1.393730168443e-03       7.907526821784e+02 
       1.754602326237e-03       9.784915214847e+02 
       2.208913456093e-03       1.207021175974e+03 
       2.780857282329e-03       1.482717253736e+03 
       3.500891899297e-03       1.811351731820e+03 
       4.407361775970e-03       2.196906006515e+03 
       5.548539738739e-03       2.639664853290e+03 
       6.985197675448e-03       3.133389455888e+03 
       8.793842860027e-03       3.661395529431e+03 
       1.107079224381e-02       4.191410169459e+03 
       1.393730168443e-02       4.670094183831e+03 
       1.754602326182e-02       5.020447203646e+03 
       2.208913290520e-02       5.150510941823e+03 
       2.780786718444e-02       4.987623252063e+03 
       3.494805604144e-02       4.548226932376e+03 
       4.277604121776e-02       4.044297618052e+03 
       4.870013432491e-02       3.737566340340e+03 
       5.317248414560e-02       3.554554438262e+03 
       5.697632041890e-02       3.424129719245e+03 
       6.042906731169e-02       3.318249505335e+03 
       6.368080352668e-02       3.223279194063e+03 
       6.681454247324e-02       3.131462915659e+03 
       6.988166299089e-02       3.038098952947e+03 
       7.291673550865e-02       2.940442874645e+03 
       7.594459634914e-02       2.837222214009e+03 
       7.898407284684e-02       2.728376256132e+03 
       8.205009923075e-02       2.614863902496e+03 
       8.515499244716e-02       2.498468968241e+03 
       8.830925938954e-02       2.381572085231e+03 
       9.152212816487e-02       2.266884933025e+03 
       9.480190929438e-02       2.157157343441e+03 
       9.815624797638e-02       2.054877507735e+03 
       1.015923041888e-01       1.961990267128e+03 
       1.051168835661e-01       1.879656919577e+03 
       1.087365338125e-01       1.808078213847e+03 
       1.124576164305e-01       1.746400099766e+03 
       1.162863604238e-01       1.692725327505e+03 
       1.202289026322e-01       1.644259215668e+03 
       1.242913180536e-01       1.597615973961e+03 
       1.284796426466e-01       1.549294997763e+03 
       1.327998905345e-01       1.496290843408e+03 
       1.372580671516e-01       1.436734635972e+03 
       1.418601796163e-01       1.370401722832e+03 
       1.466122454540e-01       1.298900184784e+03 
       1.515203006834e-01       1.225412964353e+03 
       1.565904082120e-01       1.153995630239e+03 
       1.618286674450e-01       1.088586900320e+03 
       1.672412259862e-01       1.031990874546e+03 
       1.728342942907e-01       9.851004331115e+02 
       1.786141641189e-01       9.465720866991e+02 
       1.845872316338e-01       9.130909903673e+02 
       1.907600259810e-01       8.802816015014e+02 
       1.971392441963e-01       8.441429632501e+02 
       2.037317933057e-01       8.025812576828e+02 
       2.105448405187e-01       7.563430934997e+02 
       2.175858724863e-01       7.087462060339e+02 
       2.248627647062e-01       6.641790474868e+02 
       2.323838623181e-01       6.260524507947e+02 
       2.401580737777e-01       5.952016443658e+02 
       2.481949792247e-01       5.695098752941e+02 
       2.565049558178e-01       5.450212735147e+02 
       2.650993229182e-01       5.181636801737e+02 
       2.739905108135e-01       4.879116575852e+02 
       2.831922577464e-01       4.563608574071e+02 
       2.927198414287e-01       4.270992225709e+02 
       3.025903531031e-01       4.025103203008e+02 
       3.128230247252e-01       3.820537364718e+02 
       3.234396232170e-01       3.628556177019e+02 
       3.344649303461e-01       3.422496358268e+02 
       3.459273331194e-01       3.201472755202e+02 
       3.578595584373e-01       2.988558239866e+02 
       3.702995983008e-01       2.804153990413e+02 
       3.832918899512e-01       2.643680143394e+02 
       3.968888418334e-01       2.485225402603e+02 
       4.111528359014e-01       2.318343100762e+02 
       4.261588972405e-01       2.155968582963e+02 
       4.419983163647e-01       2.011709247246e+02 
       4.587836606347e-01       1.877999023044e+02 
       4.766558600051e-01       1.741620287214e+02 
       4.957944749049e-01       1.607808498634e+02 
       5.164329977001e-01       1.485003408820e+02 
       5.388824009118e-01       1.365095035389e+02 
       5.635687540071e-01       1.245432420704e+02 
       5.910959912576e-01       1.131599037498e+02 
       6.223561583529e-01       1.017817761273e+02 
       6.587351224522e-01       9.053517590010e+01 
       7.025244939345e-01       7.914084734147e+01 
       7.578140412445e-01       6.746705763473e+01 
       8.325695492322e-01       5.519514497211e+01 
       9.434374780050e-01       4.210327448195e+01 
       1.122242530581e+00       2.870662326946e+01 
       1.396180592270e+00       1.753793273338e+01 
       1.756775705069e+00       1.032233995989e+01 
       2.211638989093e+00       6.002700167520e+00 
       2.784288503040e+00       3.456726174207e+00 
       3.505211550237e+00       1.973130684662e+00 
       4.412799894308e+00       1.117344162909e+00 
       5.555385924107e+00       6.281763909394e-01 
       6.993816512182e+00       3.508521449312e-01 
       8.804693332612e+00       1.947891009138e-01 
       1.108445217948e+01       1.075530581512e-01 
