# Matter power spectrum P(k) at redshift z=0.5
# for k=2.06008e-07 to 10.3354 h/Mpc,
# number of wavenumbers equal to 139
#    1:k (h/Mpc)              2:P (Mpc/h)^3        
       2.060078579938e-07       1.018143347976e+00 
       2.593485274577e-07       1.264849716826e+00 
       3.265004517279e-07       1.571335518396e+00 
       4.110397156425e-07       1.952085909580e+00 
       5.174683432790e-07       2.425095945358e+00 
       6.514540471530e-07       3.012721062463e+00 
       8.201320545770e-07       3.742733641455e+00 
       1.032485084534e-06       4.649635584160e+00 
       1.299821710218e-06       5.776288938493e+00 
       1.636378581796e-06       7.175941636111e+00 
       2.060078579938e-06       8.914744073321e+00 
       2.593485274577e-06       1.107487546584e+01 
       3.265004517279e-06       1.375842770940e+01 
       4.110397156425e-06       1.709223025752e+01 
       5.174683432790e-06       2.123384395522e+01 
       6.514540471530e-06       2.637900692371e+01 
       8.201320545770e-06       3.277088403962e+01 
       1.032485084534e-05       4.071155643771e+01 
       1.299821710218e-05       5.057629262315e+01 
       1.636378581796e-05       6.283127290400e+01 
       2.060078579938e-05       7.805559931500e+01 
       2.593485274577e-05       9.696862045272e+01 
       3.265004517279e-05       1.204638413614e+02 
       4.110397156425e-05       1.496509792643e+02 
       5.174683432790e-05       1.859080706494e+02 
       6.514540471530e-05       2.309459311384e+02 
       8.201320545770e-05       2.868876996646e+02 
       1.032485084534e-04       3.563666120859e+02 
       1.299821710218e-04       4.426454360886e+02 
       1.636378581796e-04       5.497609313337e+02 
       2.060078579938e-04       6.826958554273e+02 
       2.593485274577e-04       8.475787098124e+02 
       3.265004517279e-04       1.051906606465e+03 
       4.110397156425e-04       1.304778379125e+03 
       5.174683432790e-04       1.617113573819e+03 
       6.514540471530e-04       2.001821098772e+03 
       8.201320545770e-04       2.473870969948e+03 
       1.032485084534e-03       3.050192162326e+03 
       1.299821710218e-03       3.749204327488e+03 
       1.636378581796e-03       4.589637189915e+03 
       2.060078579938e-03       5.588415729658e+03 
       2.593485274577e-03       6.757415599290e+03 
       3.265004517279e-03       8.098756613478e+03 
       4.110397156425e-03       9.598751621533e+03 
       5.174683432790e-03       1.122041871315e+04 
       6.514540471530e-03       1.289545459257e+04 
       8.201320545770e-03       1.451689220602e+04 
       1.032485084534e-02       1.593402950944e+04 
       1.299821710218e-02       1.695370877778e+04 
       1.636378581789e-02       1.735662940413e+04 
       2.060078547285e-02       1.694625690822e+04 
       2.593464436190e-02       1.565144361559e+04 
       3.262505981843e-02       1.367326103756e+04 
       4.037452302897e-02       1.165036507886e+04 
       4.667728640118e-02       1.039882156963e+04 
       5.129512843098e-02       9.669514772328e+03 
       5.514031008030e-02       9.141251145952e+03 
       5.859118948678e-02       8.701961831949e+03 
       6.181937372920e-02       8.304950986532e+03 
       6.491690874255e-02       7.927821452794e+03 
       6.793951435840e-02       7.559655263649e+03 
       7.092405479091e-02       7.195990229930e+03 
       7.389665929911e-02       6.836397497718e+03 
       7.687691443483e-02       6.483041405734e+03 
       7.988020889000e-02       6.139640047600e+03 
       8.291913015618e-02       5.810607214211e+03 
       8.600433946267e-02       5.500305263783e+03 
       8.914514291450e-02       5.212400066190e+03 
       9.234987718469e-02       4.949336403794e+03 
       9.562617738377e-02       4.711958645726e+03 
       9.898116743785e-02       4.499302578694e+03 
       1.024215979349e-01       4.308582046132e+03 
       1.059539473958e-01       4.135394124738e+03 
       1.095844974751e-01       3.974161092546e+03 
       1.133193891994e-01       3.818807486883e+03 
       1.171646651870e-01       3.663626350789e+03 
       1.211263013845e-01       3.504220920473e+03 
       1.252102309288e-01       3.338335070509e+03 
       1.294223621282e-01       3.166344647600e+03 
       1.337685921453e-01       2.991213127456e+03 
       1.382548176913e-01       2.817833846240e+03 
       1.428869438641e-01       2.651861275649e+03 
       1.476708921447e-01       2.498304040805e+03 
       1.526126084936e-01       2.360244551957e+03 
       1.577180724423e-01       2.238030694316e+03 
       1.629933080472e-01       2.129180327962e+03 
       1.684443975532e-01       2.029085758721e+03 
       1.740774986037e-01       1.932408602101e+03 
       1.798988658238e-01       1.834806827130e+03 
       1.859148776027e-01       1.734397403525e+03 
       1.921320689010e-01       1.632311027667e+03 
       1.985571709269e-01       1.532000370685e+03 
       2.051971585551e-01       1.437551701150e+03 
       2.120593064254e-01       1.351780208182e+03 
       2.191512547523e-01       1.275017239815e+03 
       2.264810860275e-01       1.205158712590e+03 
       2.340574140137e-01       1.138933237120e+03 
       2.418894867327e-01       1.073716247715e+03 
       2.499873055643e-01       1.008849511507e+03 
       2.583617631383e-01       9.456509656846e+02 
       2.670248034449e-01       8.861544460152e+02 
       2.759896085788e-01       8.315287192699e+02 
       2.852708178386e-01       7.813288426434e+02 
       2.948847866384e-01       7.340488167081e+02 
       3.048498949910e-01       6.884119665584e+02 
       3.151869184307e-01       6.442570330051e+02 
       3.259194784489e-01       6.022920660413e+02 
       3.370745953058e-01       5.631002852889e+02 
       3.486833741310e-01       5.264857546298e+02 
       3.607818666094e-01       4.917723087157e+02 
       3.734121668831e-01       4.585556012916e+02 
       3.866238241514e-01       4.269519296201e+02 
       4.004756899469e-01       3.971446363053e+02 
       4.150383719565e-01       3.689797580832e+02 
       4.303975499401e-01       3.421590893952e+02 
       4.466585424835e-01       3.165862460616e+02 
       4.639527311662e-01       2.922742046711e+02 
       4.824468160922e-01       2.691028816440e+02 
       5.023565178754e-01       2.469111933622e+02 
       5.239675042585e-01       2.256209680291e+02 
       5.476685241176e-01       2.051210633175e+02 
       5.740061239863e-01       1.852639120142e+02 
       6.037795838036e-01       1.659093996975e+02 
       6.382155218620e-01       1.468723715488e+02 
       6.793117413565e-01       1.279238177062e+02 
       7.305688966713e-01       1.087599814943e+02 
       7.986710163531e-01       8.898439608968e+01 
       8.974421909014e-01       6.822983951995e+01 
       1.054704256414e+00       4.699162834225e+01 
       1.302735624060e+00       2.860815325383e+01 
       1.638078371208e+00       1.653716292719e+01 
       2.062186080218e+00       9.444078943341e+00 
       2.596138358146e+00       5.347878751274e+00 
       3.268344551560e+00       3.005351355539e+00 
       4.114602010457e+00       1.677292931598e+00 
       5.179977030384e+00       9.302378076516e-01 
       6.521204716061e+00       5.129671075735e-01 
       8.209710332561e+00       2.813884344180e-01 
       1.033541296113e+01       1.536135382154e-01 
