# Matter power spectrum P(k) at redshift z=2.5
# for k=1.91994e-07 to 12.1274 h/Mpc,
# number of wavenumbers equal to 140
#    1:k (h/Mpc)              2:P (Mpc/h)^3        
       1.919936444320e-07       2.272030288819e-01 
       2.417056778784e-07       2.837815238151e-01 
       3.042894200561e-07       3.544492943681e-01 
       3.830776834487e-07       4.427148762867e-01 
       4.822662303848e-07       5.529605072478e-01 
       6.071372126816e-07       6.906596969434e-01 
       7.643404654908e-07       8.626489776306e-01 
       9.622476352689e-07       1.077467325954e+00 
       1.211398000479e-06       1.345780107819e+00 
       1.525059726600e-06       1.680908593662e+00 
       1.919936444320e-06       2.099491333478e+00 
       2.417056778784e-06       2.622310225424e+00 
       3.042894200561e-06       3.275322286070e+00 
       3.830776834487e-06       4.090948342457e+00 
       4.822662303848e-06       5.109682612112e+00 
       6.071372126816e-06       6.382103053614e+00 
       7.643404654908e-06       7.971382241119e+00 
       9.622476352689e-06       9.956423312516e+00 
       1.211398000479e-05       1.243577645137e+01 
       1.525059726600e-05       1.553252991462e+01 
       1.919936444320e-05       1.940041754123e+01 
       2.417056778784e-05       2.423144422654e+01 
       3.042894200561e-05       3.026540447648e+01 
       3.830776834487e-05       3.780175979173e+01 
       4.822662303848e-05       4.721445101431e+01 
       6.071372126816e-05       5.897035423217e+01 
       7.643404654908e-05       7.365224388849e+01 
       9.622476352689e-05       9.198729903135e+01 
       1.211398000479e-04       1.148823640602e+02 
       1.525059726600e-04       1.434673159401e+02 
       1.919936444320e-04       1.791479186779e+02 
       2.417056778784e-04       2.236693111453e+02 
       3.042894200561e-04       2.791905080098e+02 
       3.830776834487e-04       3.483685778461e+02 
       4.822662303848e-04       4.344479941576e+02 
       6.071372126816e-04       5.413458219618e+02 
       7.643404654908e-04       6.737178507306e+02 
       9.622476352689e-04       8.369869989553e+02 
       1.211398000479e-03       1.037311712868e+03 
       1.525059726600e-03       1.281442184198e+03 
       1.919936444320e-03       1.576330829096e+03 
       2.417056778784e-03       1.928337877469e+03 
       3.042894200561e-03       2.341984549856e+03 
       3.830776834487e-03       2.818153674364e+03 
       4.822662303848e-03       3.351363696222e+03 
       6.071372126816e-03       3.926149754224e+03 
       7.643404654908e-03       4.512458158928e+03 
       9.622476352689e-03       5.060265092499e+03 
       1.211398000479e-02       5.494981636774e+03 
       1.525059726581e-02       5.718478179994e+03 
       1.919936374015e-02       5.627069235111e+03 
       2.417020651842e-02       5.163109507564e+03 
       3.039263617301e-02       4.403346911157e+03 
       3.740986404565e-02       3.658553480793e+03 
       4.288607191690e-02       3.252412087517e+03 
       4.696021852938e-02       3.040678159016e+03 
       5.039237081579e-02       2.904598708937e+03 
       5.349174037539e-02       2.801533701422e+03 
       5.640172329714e-02       2.712034353432e+03 
       5.920052228611e-02       2.625524426281e+03 
       6.193604625109e-02       2.535854953230e+03 
       6.464028025589e-02       2.439647979309e+03 
       6.733605981130e-02       2.335573567345e+03 
       7.004060551451e-02       2.223952638531e+03 
       7.276751648613e-02       2.106449066072e+03 
       7.552796555204e-02       1.985750836953e+03 
       7.833145196855e-02       1.865209699077e+03 
       8.118629494027e-02       1.748445358536e+03 
       8.409996810444e-02       1.638941107274e+03 
       8.707933253110e-02       1.539668275991e+03 
       9.013080272316e-02       1.452772945572e+03 
       9.326046704437e-02       1.379344451757e+03 
       9.647417632384e-02       1.319273607786e+03 
       9.977760971828e-02       1.271202837471e+03 
       1.031763239974e-01       1.232578984805e+03 
       1.066757905536e-01       1.199839609859e+03 
       1.102814232230e-01       1.168778328171e+03 
       1.139985992059e-01       1.135119166632e+03 
       1.178326748403e-01       1.095266873350e+03 
       1.217889976298e-01       1.047098143346e+03 
       1.258729156914e-01       9.905625662613e+02 
       1.300897856325e-01       9.278423356498e+02 
       1.344449797700e-01       8.629220492367e+02 
       1.389438935384e-01       8.006294011650e+02 
       1.435919538943e-01       7.454152845795e+02 
       1.483946295028e-01       7.002296070547e+02 
       1.533574434710e-01       6.657755887864e+02 
       1.584859893883e-01       6.402857371799e+02 
       1.637859514211e-01       6.198908525290e+02 
       1.692631292110e-01       5.996413622731e+02 
       1.749234683275e-01       5.751058047453e+02 
       1.807730970420e-01       5.440874507897e+02 
       1.868183702211e-01       5.076189605360e+02 
       1.930659211970e-01       4.695193922241e+02 
       1.995227225637e-01       4.345835817696e+02 
       2.061961569920e-01       4.063336361161e+02 
       2.130940993573e-01       3.854550417205e+02 
       2.202250117649e-01       3.695740691405e+02 
       2.275980534467e-01       3.545000270337e+02 
       2.352232080296e-01       3.365483543096e+02 
       2.431114313780e-01       3.147672200677e+02 
       2.512748241387e-01       2.914324267610e+02 
       2.597268343404e-01       2.702264276574e+02 
       2.684824970288e-01       2.534733311965e+02 
       2.775587200815e-01       2.405462116360e+02 
       2.869746282640e-01       2.285748085889e+02 
       2.967519815528e-01       2.149710696663e+02 
       3.069156892017e-01       1.997061096407e+02 
       3.174944486342e-01       1.850372259649e+02 
       3.285215490087e-01       1.728927762795e+02 
       3.400358947833e-01       1.628210792549e+02 
       3.520833272659e-01       1.527828270183e+02 
       3.647183559219e-01       1.418240124993e+02 
       3.780064626493e-01       1.311305245364e+02 
       3.920272223263e-01       1.219395992072e+02 
       4.068786108021e-01       1.136019062720e+02 
       4.226830813744e-01       1.049561407170e+02 
       4.395963460917e-01       9.643513247010e+01 
       4.578204210014e-01       8.878654052254e+01 
       4.776236298207e-01       8.136648364402e+01 
       4.993724246116e-01       7.392566064323e+01 
       5.235842213271e-01       6.694605284406e+01 
       5.510196639417e-01       6.000250396754e+01 
       5.828536078572e-01       5.318686048169e+01 
       6.210148098718e-01       4.634321861440e+01 
       6.689156752900e-01       3.940121572774e+01 
       7.331410618076e-01       3.217847944728e+01 
       8.273940109698e-01       2.455660315107e+01 
       9.786020253048e-01       1.677753406671e+01 
       1.213693488692e+00       1.019967404093e+01 
       1.526763230643e+00       5.939814548482e+00 
       1.922064780162e+00       3.420029661901e+00 
       2.419736153679e+00       1.952221182161e+00 
       3.046267333690e+00       1.105693965121e+00 
       3.835023357500e+00       6.218162937637e-01 
       4.828008359581e+00       3.474458511975e-01 
       6.078102412232e+00       1.929985781545e-01 
       7.651877582246e+00       1.066296563739e-01 
       9.633143136227e+00       5.862025826158e-02 
       1.212740868965e+01       3.207951118580e-02 
