# Matter power spectrum P(k) at redshift z=0.5
# for k=2.35834e-07 to 11.8318 h/Mpc,
# number of wavenumbers equal to 139
#    1:k (h/Mpc)              2:P (Mpc/h)^3        
       2.358337711875e-07       4.177417742967e-01 
       2.968971275072e-07       5.200413855937e-01 
       3.737713385075e-07       6.473928615059e-01 
       4.705502362474e-07       8.059310826730e-01 
       5.923876499376e-07       1.003293283120e+00 
       7.457718661395e-07       1.248986957158e+00 
       9.388711536842e-07       1.554847861730e+00 
       1.181968753774e-06       1.935610176916e+00 
       1.488010500072e-06       2.409616290742e+00 
       1.873294231557e-06       2.999700399266e+00 
       2.358337711875e-06       3.734288484826e+00 
       2.968971275072e-06       4.648767657303e+00 
       3.737713385075e-06       5.787190814407e+00 
       4.705502362474e-06       7.204398722487e+00 
       5.923876499376e-06       8.968661707316e+00 
       7.457718661395e-06       1.116496814668e+01 
       9.388711536842e-06       1.389911804374e+01 
       1.181968753774e-05       1.730281861083e+01 
       1.488010500072e-05       2.154002681117e+01 
       1.873294231557e-05       2.681484334546e+01 
       2.358337711875e-05       3.338133631578e+01 
       2.968971275072e-05       4.155576374662e+01 
       3.737713385075e-05       5.173177577918e+01 
       4.705502362474e-05       6.439931315364e+01 
       5.923876499376e-05       8.016808143662e+01 
       7.457718661395e-05       9.979667101034e+01 
       9.388711536842e-05       1.242286064197e+02 
       1.181968753774e-04       1.546368287444e+02 
       1.488010500072e-04       1.924783014843e+02 
       1.873294231557e-04       2.395604996914e+02 
       2.358337711875e-04       2.981213336052e+02 
       2.968971275072e-04       3.709232949762e+02 
       3.737713385075e-04       4.613608892641e+02 
       4.705502362474e-04       5.735772970343e+02 
       5.923876499376e-04       7.125816341347e+02 
       7.457718661395e-04       8.843530479814e+02 
       9.388711536842e-04       1.095912892945e+03 
       1.181968753774e-03       1.355333640641e+03 
       1.488010500072e-03       1.671607461291e+03 
       1.873294231557e-03       2.054228062416e+03 
       2.358337711875e-03       2.512367373744e+03 
       2.968971275072e-03       3.053534218575e+03 
       3.737713385075e-03       3.681521793778e+03 
       4.705502362474e-03       4.393623735106e+03 
       5.923876499376e-03       5.176954300914e+03 
       7.457718661395e-03       6.004018660585e+03 
       9.388711536842e-03       6.828070284050e+03 
       1.181968753774e-02       7.578681308464e+03 
       1.488010500072e-02       8.159586224289e+03 
       1.873294231554e-02       8.453380487205e+03 
       2.358337690978e-02       8.343334372390e+03 
       2.968955792626e-02       7.767005943756e+03 
       3.735617193060e-02       6.803000266668e+03 
       4.637119124615e-02       5.771545460962e+03 
       5.393351901545e-02       5.127959219364e+03 
       5.942489769055e-02       4.775244587527e+03 
       6.395943420560e-02       4.532849774397e+03 
       6.801101185851e-02       4.337275431682e+03 
       7.179135277721e-02       4.161958064263e+03 
       7.541271299256e-02       3.993810579409e+03 
       7.894248538378e-02       3.826120434009e+03 
       8.242497908515e-02       3.655865730002e+03 
       8.589144463389e-02       3.482471890185e+03 
       8.936521143554e-02       3.307088050381e+03 
       9.286454497164e-02       3.132051770310e+03 
       9.640434095670e-02       2.960416467127e+03 
       9.999718276479e-02       2.795502723226e+03 
       1.036540296201e-01       2.640474174677e+03 
       1.073846801822e-01       2.497956694717e+03 
       1.111980938538e-01       2.369723441579e+03 
       1.151026187562e-01       2.256465686541e+03 
       1.191061565772e-01       2.157665353294e+03 
       1.232162835571e-01       2.071583636325e+03 
       1.274403402642e-01       1.995382813579e+03 
       1.317854987025e-01       1.925402034608e+03 
       1.362588126826e-01       1.857598606253e+03 
       1.408672556824e-01       1.788137671019e+03 
       1.456177493141e-01       1.714058967525e+03 
       1.505171847669e-01       1.633885568266e+03 
       1.555724391033e-01       1.547998333312e+03 
       1.607903879578e-01       1.458617598231e+03 
       1.661779159713e-01       1.369327653514e+03 
       1.717419261518e-01       1.284223427610e+03 
       1.774893492680e-01       1.206891848428e+03 
       1.834271543197e-01       1.139498698236e+03 
       1.895623611008e-01       1.082220875651e+03 
       1.959020558427e-01       1.033180574079e+03 
       2.024534109163e-01       9.889456649850e+02 
       2.092237095562e-01       9.455476843139e+02 
       2.162203765701e-01       8.997885425604e+02 
       2.234510159968e-01       8.503867485717e+02 
       2.309234566934e-01       7.984248675718e+02 
       2.386458068682e-01       7.467893841921e+02 
       2.466265186434e-01       6.987991212148e+02 
       2.548744638391e-01       6.566725520704e+02 
       2.633990223427e-01       6.205699140559e+02 
       2.722101846667e-01       5.886550930069e+02 
       2.813186706516e-01       5.581578305044e+02 
       2.907360667352e-01       5.269235320268e+02 
       3.004749848577e-01       4.945700718835e+02 
       3.105492469164e-01       4.624811821014e+02 
       3.209740998153e-01       4.326270029691e+02 
       3.317664676430e-01       4.060891569626e+02 
       3.429452494890e-01       3.823796671595e+02 
       3.545316740354e-01       3.600102115407e+02 
       3.665497255958e-01       3.377948948317e+02 
       3.790266610601e-01       3.157485074237e+02 
       3.919936437788e-01       2.947832989898e+02 
       4.054865295608e-01       2.755932591721e+02 
       4.195468528618e-01       2.579427923258e+02 
       4.342230797302e-01       2.410709274703e+02 
       4.495722210481e-01       2.246191546983e+02 
       4.656619396649e-01       2.088938240876e+02 
       4.825733457522e-01       1.942164322726e+02 
       5.004047688297e-01       1.804029705636e+02 
       5.192769444019e-01       1.671158656832e+02 
       5.393402970961e-01       1.543659397074e+02 
       5.607854125298e-01       1.422811803021e+02 
       5.838585042032e-01       1.307339633643e+02 
       6.088849728434e-01       1.195913142127e+02 
       6.363065938282e-01       1.088718793833e+02 
       6.667427056465e-01       9.849161969856e+01 
       7.010959233280e-01       8.835615813622e+01 
       7.407455912452e-01       7.839144569352e+01 
       7.879265265945e-01       6.846710046872e+01 
       8.465297941477e-01       5.842956772478e+01 
       9.239320496529e-01       4.806955698308e+01 
       1.035316302078e+00       3.718134552296e+01 
       1.211619590206e+00       2.594472257487e+01 
       1.491938839449e+00       1.597995151167e+01 
       1.875253818103e+00       9.289087771595e+00 
       2.360749101024e+00       5.328587471836e+00 
       2.972006832026e+00       3.030210795409e+00 
       3.741534924760e+00       1.709783900567e+00 
       4.710313395896e+00       9.579323520546e-01 
       5.929933231608e+00       5.332521514376e-01 
       7.465343635514e+00       2.951077371307e-01 
       9.398310810524e+00       1.624407719830e-01 
       1.183177230731e+01       8.897464389496e-02 
