# Matter power spectrum P(k) at redshift z=0
# for k=1.62296e-07 to 10.252 h/Mpc,
# number of wavenumbers equal to 140
#    1:k (h/Mpc)              2:P (Mpc/h)^3        
       1.622961352912e-07       2.021972087513e+00 
       2.043187289540e-07       2.528978607111e+00 
       2.572220399857e-07       3.163116262385e+00 
       3.238233626116e-07       3.956262995976e+00 
       4.076694601243e-07       4.948290095741e+00 
       5.132254429629e-07       6.189066511664e+00 
       6.461125521253e-07       7.740965751075e+00 
       8.134075107498e-07       9.682001369360e+00 
       1.024019385427e-06       1.210974867239e+01 
       1.289164026484e-06       1.514624976380e+01 
       1.622961352912e-06       1.894414849266e+01 
       2.043187289540e-06       2.369436366630e+01 
       2.572220399857e-06       2.963568618356e+01 
       3.238233626116e-06       3.706678238060e+01 
       4.076694601243e-06       4.636120669866e+01 
       5.132254429629e-06       5.798617776397e+01 
       6.461125521253e-06       7.252606057037e+01 
       8.134075107498e-06       9.071173290384e+01 
       1.024019385427e-05       1.134573075920e+02 
       1.289164026484e-05       1.419060475375e+02 
       1.622961352912e-05       1.774877634882e+02 
       2.043187289540e-05       2.219905441461e+02 
       2.572220399857e-05       2.776503534317e+02 
       3.238233626116e-05       3.472628586004e+02 
       4.076694601243e-05       4.343228333243e+02 
       5.132254429629e-05       5.431975965197e+02 
       6.461125521253e-05       6.793421301032e+02 
       8.134075107498e-05       8.495645853132e+02 
       1.024019385427e-04       1.062351438612e+03 
       1.289164026484e-04       1.328260805115e+03 
       1.622961352912e-04       1.660388934686e+03 
       2.043187289540e-04       2.074906434079e+03 
       2.572220399857e-04       2.591644411987e+03 
       3.238233626116e-04       3.234684761730e+03 
       4.076694601243e-04       4.032876464299e+03 
       5.132254429629e-04       5.020170584356e+03 
       6.461125521253e-04       6.235629509833e+03 
       8.134075107498e-04       7.722814350100e+03 
       1.024019385427e-03       9.527870670567e+03 
       1.289164026484e-03       1.169546457174e+04 
       1.622961352912e-03       1.426200438717e+04 
       2.043187289540e-03       1.724520791050e+04 
       2.572220399857e-03       2.063043944134e+04 
       3.238233626116e-03       2.435394770159e+04 
       4.076694601243e-03       2.828101070863e+04 
       5.132254429629e-03       3.218467557153e+04 
       6.461125521253e-03       3.572407573553e+04 
       8.134075107498e-03       3.842779051507e+04 
       1.024019385427e-02       3.969400436288e+04 
       1.289164026484e-02       3.884625329523e+04 
       1.622961348705e-02       3.532899340985e+04 
       2.043183030353e-02       2.914694324750e+04 
       2.571476733233e-02       2.146238288010e+04 
       3.207842231341e-02       1.481470956822e+04 
       3.778948370334e-02       1.156254494044e+04 
       4.188505545362e-02       1.039377305500e+04 
       4.520550411535e-02       9.888417706422e+03 
       4.814369977994e-02       9.618174155678e+03 
       5.086993207481e-02       9.416416384183e+03 
       5.347229878855e-02       9.199893026757e+03 
       5.600277027682e-02       8.923021747303e+03 
       5.849506995417e-02       8.563271279862e+03 
       6.097273694917e-02       8.115428032155e+03 
       6.345319438054e-02       7.588334594594e+03 
       6.594998506440e-02       7.001876896651e+03 
       6.847408468256e-02       6.383497141489e+03 
       7.103471517362e-02       5.764221102281e+03 
       7.363987079664e-02       5.174598957634e+03 
       7.629667067459e-02       4.641129612265e+03 
       7.901160209753e-02       4.183686401250e+03 
       8.179069254889e-02       3.814204685811e+03 
       8.463963374993e-02       3.536511574486e+03 
       8.756387250279e-02       3.346842758453e+03 
       9.056867799552e-02       3.234485231852e+03 
       9.365919206528e-02       3.182231236801e+03 
       9.684046690721e-02       3.166875123910e+03 
       1.001174934159e-01       3.160543499113e+03 
       1.034952224935e-01       3.133793154754e+03 
       1.069785810897e-01       3.060800587732e+03 
       1.105724843661e-01       2.925673808304e+03 
       1.142818451201e-01       2.727593538094e+03 
       1.181115814444e-01       2.482123816272e+03 
       1.220666234861e-01       2.217289632074e+03 
       1.261519201032e-01       1.965505971678e+03 
       1.303724461715e-01       1.754614717200e+03 
       1.347332112696e-01       1.601450980542e+03 
       1.392392704516e-01       1.509296513830e+03 
       1.438957378053e-01       1.468191724472e+03 
       1.487078034895e-01       1.456827398152e+03 
       1.536807549339e-01       1.446713680347e+03 
       1.588200028936e-01       1.410353330918e+03 
       1.641311130527e-01       1.332225682003e+03 
       1.696198439010e-01       1.216523597931e+03 
       1.752921916455e-01       1.085110684656e+03 
       1.811544429962e-01       9.658587127054e+02 
       1.872132367753e-01       8.790790716105e+02 
       1.934756354644e-01       8.297396151100e+02 
       1.999492080398e-01       8.070397420479e+02 
       2.066421257665e-01       7.898229417470e+02 
       2.135632730579e-01       7.573612742331e+02 
       2.207223760881e-01       7.019271382535e+02 
       2.281301526153e-01       6.334901069207e+02 
       2.357984874894e-01       5.709348948457e+02 
       2.437406396685e-01       5.274703257842e+02 
       2.519714883567e-01       5.022775828175e+02 
       2.605078282843e-01       4.828100198096e+02 
       2.693687274012e-01       4.556020954624e+02 
       2.785759647161e-01       4.180874025319e+02 
       2.881545721939e-01       3.796648538381e+02 
       2.981335133371e-01       3.503427918466e+02 
       3.085465435170e-01       3.302666190405e+02 
       3.194333152281e-01       3.111395517693e+02 
       3.308408182390e-01       2.871757878989e+02 
       3.428252851106e-01       2.619449451187e+02 
       3.554547550759e-01       2.415216451699e+02 
       3.688125881727e-01       2.249900932416e+02 
       3.830023821600e-01       2.073225697138e+02 
       3.981550135684e-01       1.887222222432e+02 
       4.144389893115e-01       1.727017780699e+02 
       4.320761307204e-01       1.580034943695e+02 
       4.513661777796e-01       1.426898616904e+02 
       4.727269818705e-01       1.285786848918e+02 
       4.967633578150e-01       1.149626920916e+02 
       5.243918244965e-01       1.014833882582e+02 
       5.570819832743e-01       8.834884946319e+01 
       5.973602808539e-01       7.518823456176e+01 
       6.499475330641e-01       6.177702818738e+01 
       7.244521989995e-01       4.788698856653e+01 
       8.407975070175e-01       3.364567210283e+01 
       1.028064488894e+00       2.076535660679e+01 
       1.290723600537e+00       1.193549402534e+01 
       1.624840357719e+00       6.764114517947e+00 
       2.045552408291e+00       3.806333171120e+00 
       2.575197907660e+00       2.128379057743e+00 
       3.241982086352e+00       1.183241599786e+00 
       4.081413633090e+00       6.543160580525e-01 
       5.138195338740e+00       3.600595630468e-01 
       6.468604682702e+00       1.972393549291e-01 
       8.143490813905e+00       1.075925797048e-01 
       1.025204752634e+01       5.845931343140e-02 
