# Matter power spectrum P(k) at redshift z=1.5
# for k=2.20626e-07 to 11.0726 h/Mpc,
# number of wavenumbers equal to 139
#    1:k (h/Mpc)              2:P (Mpc/h)^3        
       2.206260355587e-07       1.814809010667e-01 
       2.777517226682e-07       2.277723101354e-01 
       3.496687018366e-07       2.858715431094e-01 
       4.402068144512e-07       3.587904915156e-01 
       5.541875451575e-07       4.503093076502e-01 
       6.976807834987e-07       5.651723694518e-01 
       8.783280676669e-07       7.093342306467e-01 
       1.105749524278e-06       8.902683070144e-01 
       1.392056175193e-06       1.117354300034e+00 
       1.752494893595e-06       1.402364442495e+00 
       2.206260355587e-06       1.760073769577e+00 
       2.777517226682e-06       2.209026051595e+00 
       3.496687018366e-06       2.772495087382e+00 
       4.402068144512e-06       3.479691180034e+00 
       5.541875451575e-06       4.367275315253e+00 
       6.976807834987e-06       5.481259489693e+00 
       8.783280676669e-06       6.879391610841e+00 
       1.105749524278e-05       8.634148407603e+00 
       1.392056175193e-05       1.083649113358e+01 
       1.752494893595e-05       1.360057800772e+01 
       2.206260355587e-05       1.706967619961e+01 
       2.777517226682e-05       2.142357686747e+01 
       3.496687018366e-05       2.688789176238e+01 
       4.402068144512e-05       3.374570162825e+01 
       5.541875451575e-05       4.235213699846e+01 
       6.976807834987e-05       5.315260115809e+01 
       8.783280676669e-05       6.670548865966e+01 
       1.105749524278e-04       8.371039679019e+01 
       1.392056175193e-04       1.050429379938e+02 
       1.752494893595e-04       1.317972654696e+02 
       2.206260355587e-04       1.653371788449e+02 
       2.777517226682e-04       2.073559192542e+02 
       3.496687018366e-04       2.599430634167e+02 
       4.402068144512e-04       3.256537056355e+02 
       5.541875451575e-04       4.075699435388e+02 
       6.976807834987e-04       5.093381884228e+02 
       8.783280676669e-04       6.351610238085e+02 
       1.105749524278e-03       7.897225285855e+02 
       1.392056175193e-03       9.780186722711e+02 
       1.752494893595e-03       1.205004146222e+03 
       2.206260355587e-03       1.474884133267e+03 
       2.777517226682e-03       1.790024124803e+03 
       3.496687018366e-03       2.149563876883e+03 
       4.402068144512e-03       2.547695743546e+03 
       5.541875451575e-03       2.971784882775e+03 
       6.976807834987e-03       3.400658322253e+03 
       8.783280676669e-03       3.803578370423e+03 
       1.105749524278e-02       4.140223449107e+03 
       1.392056175193e-02       4.362449927344e+03 
       1.752494893595e-02       4.419186102488e+03 
       2.206260354258e-02       4.267533187424e+03 
       2.777515287946e-02       3.894328244527e+03 
       3.496230837795e-02       3.346689515086e+03 
       4.378007505963e-02       2.757505096100e+03 
       5.232753343063e-02       2.340712677983e+03 
       5.845522058151e-02       2.119724500518e+03 
       6.331047622315e-02       1.973966011606e+03 
       6.755476765313e-02       1.858704053912e+03 
       7.146582568545e-02       1.757690916167e+03 
       7.518316442021e-02       1.663867187994e+03 
       7.878737915804e-02       1.574020960969e+03 
       8.232996139609e-02       1.486886798114e+03 
       8.584641760684e-02       1.402295598792e+03 
       8.936276831763e-02       1.320706286338e+03 
       9.289906966444e-02       1.242896887362e+03 
       9.647145896248e-02       1.169734763665e+03 
       1.000934104683e-01       1.101997019450e+03 
       1.037765416252e-01       1.040232949543e+03 
       1.075311501167e-01       9.846672680069e+02 
       1.113665826596e-01       9.351453233133e+02 
       1.152914946916e-01       8.911217382371e+02 
       1.193140370095e-01       8.516944299014e+02 
       1.234419921045e-01       8.156861909238e+02 
       1.276828749843e-01       7.817734022006e+02 
       1.320440083775e-01       7.486554498324e+02 
       1.365325791185e-01       7.152462405605e+02 
       1.411556805195e-01       6.808547349310e+02 
       1.459203442252e-01       6.453107565789e+02 
       1.508335641809e-01       6.089932261882e+02 
       1.559023147698e-01       5.727372789071e+02 
       1.611335647879e-01       5.376292370511e+02 
       1.665342886735e-01       5.047351253569e+02 
       1.721114762439e-01       4.748316333343e+02 
       1.778721420824e-01       4.482105905721e+02 
       1.838233356560e-01       4.246097115936e+02 
       1.899721531992e-01       4.032935237706e+02 
       1.963257523753e-01       3.832734259553e+02 
       2.028913707098e-01       3.636146326381e+02 
       2.096763487752e-01       3.437345380556e+02 
       2.166881591059e-01       3.235762495678e+02 
       2.239344418157e-01       3.035731534159e+02 
       2.314230479055e-01       2.844103853123e+02 
       2.391620912762e-01       2.666913505764e+02 
       2.471600105160e-01       2.506676033701e+02 
       2.554256416284e-01       2.361567611950e+02 
       2.639683030138e-01       2.226785268706e+02 
       2.727978942361e-01       2.097295436379e+02 
       2.819250104194e-01       1.970417304935e+02 
       2.913610745493e-01       1.846734375833e+02 
       3.011184905419e-01       1.728880127604e+02 
       3.112108207201e-01       1.619202151641e+02 
       3.216529923798e-01       1.518042610777e+02 
       3.324615394951e-01       1.423770249662e+02 
       3.436548874299e-01       1.334273826046e+02 
       3.552536909314e-01       1.248513802522e+02 
       3.672812389130e-01       1.166836935194e+02 
       3.797639438931e-01       1.090010666058e+02 
       3.927319399215e-01       1.018135278458e+02 
       4.062198210730e-01       9.505184043291e+01 
       4.202675641766e-01       8.864092096463e+01 
       4.349216959574e-01       8.255784808859e+01 
       4.502367887080e-01       7.681206670533e+01 
       4.662774039242e-01       7.139398865039e+01 
       4.831206565018e-01       6.626772160365e+01 
       5.008596538293e-01       6.140368723385e+01 
       5.196081928005e-01       5.679018273036e+01 
       5.395073057398e-01       5.241330964920e+01 
       5.607345922664e-01       4.824971937990e+01 
       5.835178689494e-01       4.427901954888e+01 
       6.081557293765e-01       4.048400320419e+01 
       6.350495792340e-01       3.684294524597e+01 
       6.647555541322e-01       3.333331045956e+01 
       6.980726308504e-01       2.992990495989e+01 
       7.362005118157e-01       2.660320567179e+01 
       7.810412242350e-01       2.331689622628e+01 
       8.358194955671e-01       2.002527333278e+01 
       9.064642741180e-01       1.666823100673e+01 
       1.004872056516e+00       1.317555454133e+01 
       1.155950904102e+00       9.536113199410e+00 
       1.400817805321e+00       6.082771320566e+00 
       1.755105594765e+00       3.558380523258e+00 
       2.209280257623e+00       2.041108838306e+00 
       2.781317295501e+00       1.161302428468e+00 
       3.501471019712e+00       6.560556929996e-01 
       4.408090845377e+00       3.682427038606e-01 
       5.549457582742e+00       2.054819492414e-01 
       6.986353172588e+00       1.140456407263e-01 
       8.795297544739e+00       6.298580945700e-02 
       1.107262358336e+01       3.462871841171e-02 
