# Matter power spectrum P(k) at redshift z=2.5
# for k=1.68051e-07 to 10.6181 h/Mpc,
# number of wavenumbers equal to 140
#    1:k (h/Mpc)              2:P (Mpc/h)^3        
       1.680510315658e-07       2.843662646439e-01 
       2.115637141164e-07       3.549834228569e-01 
       2.663429359147e-07       4.431370598923e-01 
       3.353058902748e-07       5.531820389772e-01 
       4.221251059912e-07       6.905546738041e-01 
       5.314240228887e-07       8.620412861436e-01 
       6.690232068525e-07       1.076113455520e+00 
       8.422503161866e-07       1.343346520453e+00 
       1.060330326139e-06       1.676942006103e+00 
       1.334876792472e-06       2.093379784816e+00 
       1.680510315658e-06       2.613232183449e+00 
       2.115637141164e-06       3.262180248818e+00 
       2.663429359147e-06       4.072282367712e+00 
       3.353058902748e-06       5.083557883034e+00 
       4.221251059912e-06       6.345963897788e+00 
       5.314240228887e-06       7.921862834718e+00 
       6.690232068525e-06       9.889102464223e+00 
       8.422503161866e-06       1.234486021867e+01 
       1.060330326139e-05       1.541044101402e+01 
       1.334876792472e-05       1.923726419079e+01 
       1.680510315658e-05       2.401433269077e+01 
       2.115637141164e-05       2.997754801230e+01 
       2.663429359147e-05       3.742132057240e+01 
       3.353058902748e-05       4.671302805785e+01 
       4.221251059912e-05       5.831099464588e+01 
       5.314240228887e-05       7.278679766558e+01 
       6.690232068525e-05       9.085284280642e+01 
       8.422503161866e-05       1.133962541569e+02 
       1.060330326139e-04       1.415201348584e+02 
       1.334876792472e-04       1.765930342919e+02 
       1.680510315658e-04       2.203067515326e+02 
       2.115637141164e-04       2.747409509927e+02 
       2.663429359147e-04       3.424297117213e+02 
       3.353058902748e-04       4.264190709876e+02 
       4.221251059913e-04       5.302951274512e+02 
       5.314240228887e-04       6.581507306689e+02 
       6.690232068525e-04       8.144522582110e+02 
       8.422503161866e-04       1.003779532690e+03 
       1.060330326139e-03       1.230436149185e+03 
       1.334876792472e-03       1.497876896868e+03 
       1.680510315658e-03       1.807693700968e+03 
       2.115637141164e-03       2.158024095868e+03 
       2.663429359147e-03       2.541955470941e+03 
       3.353058902748e-03       2.945992684224e+03 
       4.221251059913e-03       3.348530382057e+03 
       5.314240228887e-03       3.719246452520e+03 
       6.690232068525e-03       4.019457664833e+03 
       8.422503161866e-03       4.203614059305e+03 
       1.060330326139e-02       4.222371944209e+03 
       1.334876792472e-02       4.029192808731e+03 
       1.680510315435e-02       3.595376280761e+03 
       2.115636669004e-02       2.939922846131e+03 
       2.663278520925e-02       2.168502245264e+03 
       3.342792846104e-02       1.482166212626e+03 
       4.048929432437e-02       1.094750375565e+03 
       4.564773990501e-02       9.573889580603e+02 
       4.963499666103e-02       8.985650995735e+02 
       5.307358645734e-02       8.632256077352e+02 
       5.621846352562e-02       8.335162394167e+02 
       5.919380098067e-02       8.019355984194e+02 
       6.206976693624e-02       7.651796468658e+02 
       6.489047074490e-02       7.222437691715e+02 
       6.768594855003e-02       6.736303590152e+02 
       7.047798832252e-02       6.208733297738e+02 
       7.328324033710e-02       5.661458257639e+02 
       7.611500333659e-02       5.118914010067e+02 
       7.898431099031e-02       4.604850226020e+02 
       8.190062421549e-02       4.139527465000e+02 
       8.487228949372e-02       3.737791417858e+02 
       8.790685198658e-02       3.408140853179e+02 
       9.101127508959e-02       3.152657366770e+02 
       9.419209769038e-02       2.967474480463e+02 
       9.745554873646e-02       2.843416217786e+02 
       1.008076317945e-01       2.766613827418e+02 
       1.042541880414e-01       2.719238809339e+02 
       1.078009434597e-01       2.680800555723e+02 
       1.114535442950e-01       2.630489152092e+02 
       1.152175837116e-01       2.550641799770e+02 
       1.190986218427e-01       2.430657690835e+02 
       1.231022009365e-01       2.269983843228e+02 
       1.272338569715e-01       2.078674345482e+02 
       1.314991288984e-01       1.874802547805e+02 
       1.359035665203e-01       1.679410051857e+02 
       1.404527379357e-01       1.510857510299e+02 
       1.451522374075e-01       1.380568752763e+02 
       1.500076944871e-01       1.291123623855e+02 
       1.550247851999e-01       1.236412622064e+02 
       1.602092460828e-01       1.203238887838e+02 
       1.655668918565e-01       1.174409602732e+02 
       1.711036375067e-01       1.133655687271e+02 
       1.768255255489e-01       1.071460076626e+02 
       1.827387592585e-01       9.889442512829e+01 
       1.888497426655e-01       8.969248963807e+01 
       1.951651281551e-01       8.101711285077e+01 
       2.016918725834e-01       7.402792882282e+01 
       2.084373029243e-01       6.910422916245e+01 
       2.154091926312e-01       6.578442391138e+01 
       2.226158501230e-01       6.306026118562e+01 
       2.300662211352e-01       5.991671099489e+01 
       2.377700071109e-01       5.589272087998e+01 
       2.457378023989e-01       5.129752784730e+01 
       2.539812538102e-01       4.689028259315e+01 
       2.625132471156e-01       4.328483723554e+01 
       2.713481264399e-01       4.055203229857e+01 
       2.805019543251e-01       3.826499978285e+01 
       2.899928226649e-01       3.590042570258e+01 
       2.998412279905e-01       3.327177477877e+01 
       3.100705290577e-01       3.061526235072e+01 
       3.207075108578e-01       2.826791578577e+01 
       3.317830878121e-01       2.630833920162e+01 
       3.433331911969e-01       2.453229780983e+01 
       3.553999035870e-01       2.273607825584e+01 
       3.680329292091e-01       2.094211511483e+01 
       3.812915282300e-01       1.929641105677e+01 
       3.952471029347e-01       1.782862738018e+01 
       4.099867176821e-01       1.643760054335e+01 
       4.256179855719e-01       1.507688616286e+01 
       4.422760046848e-01       1.379871322213e+01 
       4.601334537102e-01       1.261446436967e+01 
       4.794157128358e-01       1.147819687636e+01 
       5.004242701213e-01       1.039054416621e+01 
       5.235743664631e-01       9.359621494756e+00 
       5.494583130468e-01       8.364046466205e+00 
       5.789577533844e-01       7.401659627337e+00 
       6.134554625941e-01       6.460413005306e+00 
       6.552648839082e-01       5.528998189399e+00 
       7.085731283270e-01       4.591777658932e+00 
       7.816546246258e-01       3.631657654396e+00 
       8.918629820277e-01       2.642786385777e+00 
       1.070502275882e+00       1.694362409765e+00 
       1.337097815571e+00       9.793699674952e-01 
       1.682860997506e+00       5.516448284657e-01 
       2.118592506281e+00       3.084946539836e-01 
       2.667149937394e+00       1.714884024496e-01 
       3.357742833249e+00       9.480775845699e-02 
       4.227147779047e+00       5.215198671699e-02 
       5.321663758452e+00       2.855543814553e-02 
       6.699577738539e+00       1.556863052557e-02 
       8.434268663337e+00       8.454506302078e-03 
       1.061811515017e+01       4.574205200523e-03 
