# Matter power spectrum P(k) at redshift z=0.5
# for k=1.72234e-07 to 10.8814 h/Mpc,
# number of wavenumbers equal to 140
#    1:k (h/Mpc)              2:P (Mpc/h)^3        
       1.722342074823e-07       1.317310639099e+00 
       2.168300205797e-07       1.646486594309e+00 
       2.729728229476e-07       2.057918628971e+00 
       3.436524235379e-07       2.572161289289e+00 
       4.326327688166e-07       3.214905389673e+00 
       5.446523866380e-07       4.018261488118e+00 
       6.856767301330e-07       5.022364079704e+00 
       8.632158598403e-07       6.277376654088e+00 
       1.086724381817e-06       7.845997781035e+00 
       1.368104939885e-06       9.806593422904e+00 
       1.722342074823e-06       1.225711194822e+01 
       2.168300205797e-06       1.531997741926e+01 
       2.729728229476e-06       1.914820558269e+01 
       3.436524235379e-06       2.393304803868e+01 
       4.326327688166e-06       2.991354634697e+01 
       5.446523866380e-06       3.738847311633e+01 
       6.856767301330e-06       4.673125610763e+01 
       8.632158598403e-06       5.840862990211e+01 
       1.086724381817e-05       7.300394489206e+01 
       1.368104939885e-05       9.124629396449e+01 
       1.722342074823e-05       1.140469039946e+02 
       2.168300205797e-05       1.425445941493e+02 
       2.729728229476e-05       1.781625404643e+02 
       3.436524235379e-05       2.226791199636e+02 
       4.326327688166e-05       2.783162500026e+02 
       5.446523866380e-05       3.478493922545e+02 
       6.856767301330e-05       4.347442371089e+02 
       8.632158598403e-05       5.433259562079e+02 
       1.086724381817e-04       6.789876455723e+02 
       1.368104939885e-04       8.484448352483e+02 
       1.722342074823e-04       1.060042058016e+03 
       2.168300205797e-04       1.324114325043e+03 
       2.729728229476e-04       1.653399321480e+03 
       3.436524235379e-04       2.063483562492e+03 
       4.326327688166e-04       2.573247674391e+03 
       5.446523866380e-04       3.205256240910e+03 
       6.856767301330e-04       3.986017779220e+03 
       8.632158598403e-04       4.945984036344e+03 
       1.086724381817e-03       6.118964524949e+03 
       1.368104939885e-03       7.540383854540e+03 
       1.722342074823e-03       9.243961545599e+03 
       2.168300205797e-03       1.125634056884e+04 
       2.729728229476e-03       1.358903088626e+04 
       3.436524235379e-03       1.622747217651e+04 
       4.326327688166e-03       1.911657345923e+04 
       5.446523866380e-03       2.214404307617e+04 
       6.856767301330e-03       2.512260038242e+04 
       8.632158598403e-03       2.777462374459e+04 
       1.086724381817e-02       2.972812193262e+04 
       1.368104939816e-02       3.054632823410e+04 
       1.722341889082e-02       2.983472899020e+04 
       2.168228266805e-02       2.747361250804e+04 
       2.723990997946e-02       2.395151905504e+04 
       3.323376791117e-02       2.071581067059e+04 
       3.770910763426e-02       1.890504847176e+04 
       4.111404967149e-02       1.780596423271e+04 
       4.402372904276e-02       1.698732845640e+04 
       4.667161195143e-02       1.629167019996e+04 
       4.916917767697e-02       1.564803182891e+04 
       5.157853170125e-02       1.502048527306e+04 
       5.393831251618e-02       1.439107804812e+04 
       5.627462180206e-02       1.375285437808e+04 
       5.860627185685e-02       1.310634119994e+04 
       6.094756163676e-02       1.245730995610e+04 
       6.330985929789e-02       1.181500059739e+04 
       6.570255920149e-02       1.119050160341e+04 
       6.813368885472e-02       1.059521158543e+04 
       7.061030913663e-02       1.003940798726e+04 
       7.313878684390e-02       9.530994094765e+03 
       7.572498528919e-02       9.074502539735e+03 
       7.837440052491e-02       8.670424399954e+03 
       8.109226041828e-02       8.314926933105e+03 
       8.388359768344e-02       8.000020717832e+03 
       8.675330423903e-02       7.714247771624e+03 
       8.970617191535e-02       7.443947153748e+03 
       9.274692303164e-02       7.175085627913e+03 
       9.588023338295e-02       6.895498551665e+03 
       9.911074952769e-02       6.597176718914e+03 
       1.024431018357e-01       6.278049895475e+03 
       1.058819144698e-01       5.942669135981e+03 
       1.094318132824e-01       5.601375008005e+03 
       1.130974324864e-01       5.267957590565e+03 
       1.168834208754e-01       4.956306360492e+03 
       1.207944483223e-01       4.676910011397e+03 
       1.248352132492e-01       4.434134170312e+03 
       1.290104517441e-01       4.225015497786e+03 
       1.333249489874e-01       4.039994991833e+03 
       1.377835536405e-01       3.865639976798e+03 
       1.423911958454e-01       3.688868512696e+03 
       1.471529094811e-01       3.501453089751e+03 
       1.520738593291e-01       3.302990763053e+03 
       1.571593738133e-01       3.100752505335e+03 
       1.624149840116e-01       2.906161653779e+03 
       1.678464696906e-01       2.729439901805e+03 
       1.734599132022e-01       2.574987203065e+03 
       1.792617622084e-01       2.439694451354e+03 
       1.852589023918e-01       2.314999452047e+03 
       1.914587415663e-01       2.191734975916e+03 
       1.978693069612e-01       2.065199396765e+03 
       2.044993579261e-01       1.937332428726e+03 
       2.113585169406e-01       1.814479007348e+03 
       2.184574226466e-01       1.702369234753e+03 
       2.258079097355e-01       1.602051715796e+03 
       2.334232219866e-01       1.509706681444e+03 
       2.413182667227e-01       1.420229441083e+03 
       2.495099215915e-01       1.331445848407e+03 
       2.580174081878e-01       1.245228354935e+03 
       2.668627519984e-01       1.164704830853e+03 
       2.760713550977e-01       1.090702357938e+03 
       2.856727178773e-01       1.021195553874e+03 
       2.957013603058e-01       9.539799443385e+02 
       3.061980140733e-01       8.890336039760e+02 
       3.172111881841e-01       8.276760627687e+02 
       3.287992582352e-01       7.701513242158e+02 
       3.410333041339e-01       7.153290015128e+02 
       3.540010404826e-01       6.625608848758e+02 
       3.678123808701e-01       6.122296534769e+02 
       3.826075126197e-01       5.643374883008e+02 
       3.985689497903e-01       5.182698021175e+02 
       4.159401174105e-01       4.738533440240e+02 
       4.350551043074e-01       4.310036943421e+02 
       4.563884379471e-01       3.892922809769e+02 
       4.806427775742e-01       3.484476246499e+02 
       5.089131314028e-01       3.080413823938e+02 
       5.430170571448e-01       2.675374438975e+02 
       5.862131637348e-01       2.262055956061e+02 
       6.448788964121e-01       1.831219369239e+02 
       7.323632461612e-01       1.376578432062e+02 
       8.737576336039e-01       9.206574447505e+01 
       1.088595201340e+00       5.526424452719e+01 
       1.369887709758e+00       3.208603128638e+01 
       1.724580349900e+00       1.843755074351e+01 
       2.171118015725e+00       1.050571561808e+01 
       2.733275641998e+00       5.940697447349e+00 
       3.440990163149e+00       3.336154571265e+00 
       4.331949958122e+00       1.861756038417e+00 
       5.453601884900e+00       1.033013122172e+00 
       6.865677998709e+00       5.701714494007e-01 
       8.643376501771e+00       3.131887976131e-01 
       1.088136632178e+01       1.712651972478e-01 
