# Matter power spectrum P(k) at redshift z=1
# for k=2.33412e-07 to 11.7139 h/Mpc,
# number of wavenumbers equal to 139
#    1:k (h/Mpc)              2:P (Mpc/h)^3        
       2.334122392182e-07       3.284691307080e-01 
       2.938485993756e-07       4.079477676673e-01 
       3.699334689741e-07       5.066575989449e-01 
       4.657186447646e-07       6.292519358011e-01 
       5.863050366405e-07       7.815100361744e-01 
       7.381143096896e-07       9.706095466991e-01 
       9.292308612772e-07       1.205464865831e+00 
       1.169832344685e-06       1.497147379889e+00 
       1.472731666263e-06       1.859407381363e+00 
       1.854059319412e-06       2.309322274052e+00 
       2.334122392182e-06       2.868101619207e+00 
       2.938485993756e-06       3.562086973158e+00 
       3.699334689741e-06       4.423993645792e+00 
       4.657186447646e-06       5.494452908417e+00 
       5.863050366405e-06       6.823927336738e+00 
       7.381143096896e-06       8.475089548864e+00 
       9.292308612772e-06       1.052577641040e+01 
       1.169832344685e-05       1.307265784368e+01 
       1.472731666263e-05       1.623579295364e+01 
       1.854059319412e-05       2.016428774697e+01 
       2.334122392182e-05       2.504332021722e+01 
       2.938485993756e-05       3.110286205655e+01 
       3.699334689741e-05       3.862850443898e+01 
       4.657186447646e-05       4.797489089686e+01 
       5.863050366405e-05       5.958237616705e+01 
       7.381143096896e-05       7.399766811377e+01 
       9.292308612772e-05       9.189937059486e+01 
       1.169832344685e-04       1.141295233888e+02 
       1.472731666263e-04       1.417324161058e+02 
       1.854059319412e-04       1.760021001398e+02 
       2.334122392182e-04       2.185400634661e+02 
       2.938485993756e-04       2.713243320059e+02 
       3.699334689741e-04       3.367905972147e+02 
       4.657186447646e-04       4.179245464355e+02 
       5.863050366405e-04       5.183621512721e+02 
       7.381143096896e-04       6.424914029237e+02 
       9.292308612772e-04       7.955455292901e+02 
       1.169832344685e-03       9.836728310858e+02 
       1.472731666263e-03       1.213950926638e+03 
       1.854059319412e-03       1.494266926596e+03 
       2.334122392182e-03       1.832950947235e+03 
       2.938485993756e-03       2.238078236497e+03 
       3.699334689741e-03       2.716309777369e+03 
       4.657186447646e-03       3.271076729083e+03 
       5.863050366405e-03       3.899884177829e+03 
       7.381143096896e-03       4.590596953522e+03 
       9.292308612772e-03       5.316715424828e+03 
       1.169832344685e-02       6.031817022853e+03 
       1.472731666263e-02       6.664639398955e+03 
       1.854059319295e-02       7.118911256995e+03 
       2.334122093133e-02       7.287366492829e+03 
       2.938375316712e-02       7.093930776679e+03 
       3.690831393735e-02       6.570945336145e+03 
       4.495664721051e-02       5.977109266687e+03 
       5.093112274327e-02       5.601134812997e+03 
       5.549359472296e-02       5.354623657660e+03 
       5.940102914154e-02       5.163097850736e+03 
       6.296115659205e-02       4.996866443518e+03 
       6.632160770606e-02       4.841652982700e+03 
       6.956490642816e-02       4.689697998008e+03 
       7.274252076741e-02       4.536700768451e+03 
       7.588928489087e-02       4.380563868317e+03 
       7.903034311584e-02       4.220778805898e+03 
       8.218483160041e-02       4.058051930772e+03 
       8.536798079204e-02       3.894008773000e+03 
       8.859238858772e-02       3.730910402582e+03 
       9.186882868929e-02       3.571358115381e+03 
       9.520678413767e-02       3.417985191260e+03 
       9.861481091649e-02       3.273149783432e+03 
       1.021007923897e-01       3.138649258702e+03 
       1.056721212449e-01       3.015480106451e+03 
       1.093358318741e-01       2.903668410859e+03 
       1.130986979851e-01       2.802196564230e+03 
       1.169673052686e-01       2.709051462600e+03 
       1.209481058238e-01       2.621416225921e+03 
       1.250474590415e-01       2.536016251868e+03 
       1.292716623386e-01       2.449605524364e+03 
       1.336269742736e-01       2.359537021871e+03 
       1.381196319964e-01       2.264313315743e+03 
       1.427558646048e-01       2.163976217392e+03 
       1.475419037243e-01       2.060195391470e+03 
       1.524839924657e-01       1.955972205536e+03 
       1.575883938019e-01       1.854978421167e+03 
       1.628613993443e-01       1.760667902657e+03 
       1.683093394524e-01       1.675382761141e+03 
       1.739385955848e-01       1.599698316823e+03 
       1.797556157854e-01       1.532211318689e+03 
       1.857669341819e-01       1.469891990158e+03 
       1.919791953726e-01       1.408988963831e+03 
       1.983991845698e-01       1.346284226141e+03 
       2.050338643790e-01       1.280278563540e+03 
       2.118904191120e-01       1.211780421821e+03 
       2.189763075735e-01       1.143535241252e+03 
       2.262993253367e-01       1.078970436527e+03 
       2.338676776405e-01       1.020608714671e+03 
       2.416900642176e-01       9.689110522320e+02 
       2.497757776174e-01       9.221345880296e+02 
       2.581348169439e-01       8.773294723299e+02 
       2.667780194077e-01       8.320118609255e+02 
       2.757172127431e-01       7.855650689426e+02 
       2.849653923964e-01       7.394339687348e+02 
       2.945369285333e-01       6.959262159582e+02 
       3.044478094142e-01       6.564724879437e+02 
       3.147159296832e-01       6.206433129742e+02 
       3.253614347841e-01       5.866605792832e+02 
       3.364071363086e-01       5.529682490111e+02 
       3.478790179770e-01       5.194885206403e+02 
       3.598068587031e-01       4.873976341605e+02 
       3.722250086354e-01       4.576977431877e+02 
       3.851733674682e-01       4.301413799091e+02 
       3.986986336495e-01       4.036644597976e+02 
       4.128559215037e-01       3.777136457028e+02 
       4.277108857866e-01       3.527397660826e+02 
       4.433425581445e-01       3.292704174329e+02 
       4.598472015497e-01       3.070386598903e+02 
       4.773436517833e-01       2.854944156410e+02 
       4.959808840477e-01       2.646693099618e+02 
       5.159490010265e-01       2.448065569694e+02 
       5.374956475211e-01       2.256803660886e+02 
       5.609513429516e-01       2.070644770957e+02 
       5.867700812017e-01       1.890213415570e+02 
       6.155973368992e-01       1.713823522892e+02 
       6.483900554320e-01       1.539878198505e+02 
       6.866417405241e-01       1.366871706001e+02 
       7.328359538737e-01       1.192192530930e+02 
       7.914351738043e-01       1.012553260898e+02 
       8.711929404113e-01       8.236948122261e+01 
       9.904433752697e-01       6.225137504400e+01 
       1.183345244915e+00       4.189651541331e+01 
       1.475246696231e+00       2.536702522249e+01 
       1.856527261928e+00       1.485659875267e+01 
       2.337222211249e+00       8.599300960386e+00 
       2.942388422014e+00       4.928931418200e+00 
       3.704247555839e+00       2.800364818965e+00 
       4.663371379623e+00       1.578408876049e+00 
       5.870836734440e+00       8.832696385714e-01 
       7.390945553482e+00       4.910461357563e-01 
       9.304649174465e+00       2.713678140109e-01 
       1.171385929356e+01       1.491498691660e-01 
