# Matter power spectrum P(k) at redshift z=0.5
# for k=2.15622e-07 to 10.8206 h/Mpc,
# number of wavenumbers equal to 139
#    1:k (h/Mpc)              2:P (Mpc/h)^3        
       2.156223732048e-07       4.939192740589e-01 
       2.714524849789e-07       6.191358811061e-01 
       3.417384314347e-07       7.760969439453e-01 
       4.302231955198e-07       9.728502006917e-01 
       5.416189135831e-07       1.219483622222e+00 
       6.818578138182e-07       1.528642644376e+00 
       8.584081290461e-07       1.916178526592e+00 
       1.080671807347e-06       2.401961079621e+00 
       1.360485200078e-06       3.010897431670e+00 
       1.712749390749e-06       3.774209067657e+00 
       2.156223732048e-06       4.731032612420e+00 
       2.714524849789e-06       5.930426433444e+00 
       3.417384314347e-06       7.433885933266e+00 
       4.302231955198e-06       9.318496479515e+00 
       5.416189135831e-06       1.168088559193e+01 
       6.818578138182e-06       1.464217695308e+01 
       8.584081290461e-06       1.835420010106e+01 
       1.080671807347e-05       2.300727389960e+01 
       1.360485200078e-05       2.883996229505e+01 
       1.712749390749e-05       3.615130142521e+01 
       2.156223732048e-05       4.531612274527e+01 
       2.714524849789e-05       5.680425335979e+01 
       3.417384314347e-05       7.120456914964e+01 
       4.302231955198e-05       8.925511637849e+01 
       5.416189135831e-05       1.118808113804e+02 
       6.818578138182e-05       1.402405823242e+02 
       8.584081290461e-05       1.757862340518e+02 
       1.080671807347e-04       2.203357861425e+02 
       1.360485200078e-04       2.761645199487e+02 
       1.712749390749e-04       3.461173846745e+02 
       2.156223732048e-04       4.337465764744e+02 
       2.714524849789e-04       5.434776910540e+02 
       3.417384314347e-04       6.808063483812e+02 
       4.302231955198e-04       8.525239850679e+02 
       5.416189135831e-04       1.066966282889e+03 
       6.818578138182e-04       1.334270995513e+03 
       8.584081290461e-04       1.666623755568e+03 
       1.080671807347e-03       2.078450772973e+03 
       1.360485200078e-03       2.586455371562e+03 
       1.712749390749e-03       3.209298947341e+03 
       2.156223732048e-03       3.966724057466e+03 
       2.714524849789e-03       4.877856778973e+03 
       3.417384314347e-03       5.958321583058e+03 
       4.302231955198e-03       7.215807744637e+03 
       5.416189135831e-03       8.643464699179e+03 
       6.818578138182e-03       1.021092581461e+04 
       8.584081290461e-03       1.185297892430e+04 
       1.080671807347e-02       1.345642245812e+04 
       1.360485200078e-02       1.484876942763e+04 
       1.712749390673e-02       1.579910812471e+04 
       2.156223523046e-02       1.605474858794e+04 
       2.714441594976e-02       1.544829732245e+04 
       3.410589876826e-02       1.408801755675e+04 
       4.165112454130e-02       1.261964835574e+04 
       4.730617884838e-02       1.173127506758e+04 
       5.159882749610e-02       1.117761376772e+04 
       5.526205649629e-02       1.076153938312e+04 
       5.859320287913e-02       1.040673307049e+04 
       6.173383284031e-02       1.007709236307e+04 
       6.476264830451e-02       9.753175000208e+03 
       6.772853866512e-02       9.424303585772e+03 
       7.066449190895e-02       9.085382566444e+03 
       7.359426115389e-02       8.735359213431e+03 
       7.653588662223e-02       8.376282835161e+03 
       7.950370127738e-02       8.012550708007e+03 
       8.250954265279e-02       7.650173801295e+03 
       8.556352087132e-02       7.296007513706e+03 
       8.867452479996e-02       6.956953291582e+03 
       9.185056656813e-02       6.639170969296e+03 
       9.509902240467e-02       6.347356373105e+03 
       9.842680471358e-02       6.084142731293e+03 
       1.018404871931e-01       5.849681499078e+03 
       1.053463970483e-01       5.641458358379e+03 
       1.089506836167e-01       5.454401327332e+03 
       1.126593697558e-01       5.281338836986e+03 
       1.164783904422e-01       5.113846437210e+03 
       1.204136217893e-01       4.943465122168e+03 
       1.244709028696e-01       4.763165450073e+03 
       1.286560521833e-01       4.568797243644e+03 
       1.329748802530e-01       4.360152185334e+03 
       1.374331995792e-01       4.141255837853e+03 
       1.420368330393e-01       3.919651730105e+03 
       1.467916217061e-01       3.704723037928e+03 
       1.517034330000e-01       3.505414838868e+03 
       1.567781700494e-01       3.327937843583e+03 
       1.620217831062e-01       3.174069045722e+03 
       1.674402838502e-01       3.040546529093e+03 
       1.730397634027e-01       2.919854044630e+03 
       1.788264148640e-01       2.802408744398e+03 
       1.848065611873e-01       2.679718324839e+03 
       1.909866892072e-01       2.547495776526e+03 
       1.973734906587e-01       2.407356056118e+03 
       2.039739110633e-01       2.266060947747e+03 
       2.107952074236e-01       2.132410280449e+03 
       2.178450157776e-01       2.013166013147e+03 
       2.251314298266e-01       1.909968687412e+03 
       2.326630920836e-01       1.818761165163e+03 
       2.404492993148e-01       1.732112460517e+03 
       2.485001244944e-01       1.643417053689e+03 
       2.568265580850e-01       1.550653314632e+03 
       2.654406722519e-01       1.457203129365e+03 
       2.743558126664e-01       1.369009205145e+03 
       2.835868239403e-01       1.290091657725e+03 
       2.931503165721e-01       1.219770308407e+03 
       3.030649857454e-01       1.153657841533e+03 
       3.133519956225e-01       1.087573524683e+03 
       3.240354472896e-01       1.020996085647e+03 
       3.351429547132e-01       9.568481421340e+02 
       3.467063617523e-01       8.979392350072e+02 
       3.587626455794e-01       8.439491855011e+02 
       3.713550696152e-01       7.922077851242e+02 
       3.845346751310e-01       7.411016621641e+02 
       3.983622396196e-01       6.916801874588e+02 
       4.129108895290e-01       6.454649306486e+02 
       4.282696478934e-01       6.019706835874e+02 
       4.445483463472e-01       5.597523417741e+02 
       4.618845765208e-01       5.188011373672e+02 
       4.804537734312e-01       4.798540203542e+02 
       5.004842594271e-01       4.424560060661e+02 
       5.222804270698e-01       4.059950237858e+02 
       5.462598300111e-01       3.706950321237e+02 
       5.730151864125e-01       3.362368163213e+02 
       6.034235176017e-01       3.022531769362e+02 
       6.388503074798e-01       2.685023878346e+02 
       6.815595145587e-01       2.344522057475e+02 
       7.356045921374e-01       1.994797942288e+02 
       8.089073880445e-01       1.627511210820e+02 
       9.180423023734e-01       1.236213223984e+02 
       1.094325941268e+00       8.381324923454e+01 
       1.362840112584e+00       5.104356959092e+01 
       1.714949818793e+00       3.002605346450e+01 
       2.158985553493e+00       1.746285360997e+01 
       2.718001760824e+00       1.006182508835e+01 
       3.421761485999e+00       5.748902990736e+00 
       4.307742487822e+00       3.259782790016e+00 
       5.423126485385e+00       1.835669949219e+00 
       6.827311743825e+00       1.027241298295e+00 
       8.595076248542e+00       5.715570955983e-01 
       1.082055990560e+01       3.163474833407e-01 
