# Matter power spectrum P(k) at redshift z=1
# for k=2.15622e-07 to 10.8206 h/Mpc,
# number of wavenumbers equal to 139
#    1:k (h/Mpc)              2:P (Mpc/h)^3        
       2.156223732048e-07       3.048668109115e-01 
       2.714524849789e-07       3.821555292734e-01 
       3.417384314347e-07       4.790382005413e-01 
       4.302231955198e-07       6.004822119070e-01 
       5.416189135831e-07       7.527142641262e-01 
       6.818578138182e-07       9.435396280552e-01 
       8.584081290461e-07       1.182742337656e+00 
       1.080671807347e-06       1.482586838230e+00 
       1.360485200078e-06       1.858446809768e+00 
       1.712749390749e-06       2.329593407410e+00 
       2.156223732048e-06       2.920183328848e+00 
       2.714524849789e-06       3.660497371174e+00 
       3.417384314347e-06       4.588492971518e+00 
       4.302231955198e-06       5.751750324779e+00 
       5.416189135831e-06       7.209911836864e+00 
       6.818578138182e-06       9.037739949091e+00 
       8.584081290461e-06       1.132895003014e+01 
       1.080671807347e-05       1.420101468525e+01 
       1.360485200078e-05       1.780118547979e+01 
       1.712749390749e-05       2.231404015698e+01 
       2.156223732048e-05       2.797094099504e+01 
       2.714524849789e-05       3.506188663504e+01 
       3.417384314347e-05       4.395035985046e+01 
       4.302231955198e-05       5.509192221278e+01 
       5.416189135831e-05       6.905748860434e+01 
       6.818578138182e-05       8.656243435759e+01 
       8.584081290461e-05       1.085029473472e+02 
       1.080671807347e-04       1.360013308696e+02 
       1.360485200078e-04       1.704622700890e+02 
       1.712749390749e-04       2.136423425732e+02 
       2.156223732048e-04       2.677351721092e+02 
       2.714524849789e-04       3.354743861009e+02 
       3.417384314347e-04       4.202555942392e+02 
       4.302231955198e-04       5.262764883442e+02 
       5.416189135831e-04       6.586904803434e+02 
       6.818578138182e-04       8.237642688835e+02 
       8.584081290461e-04       1.029024376420e+03 
       1.080671807347e-03       1.283369975523e+03 
       1.360485200078e-03       1.597101794275e+03 
       1.712749390749e-03       1.981744965366e+03 
       2.156223732048e-03       2.449494909292e+03 
       2.714524849789e-03       3.012159656734e+03 
       3.417384314347e-03       3.679389670531e+03 
       4.302231955198e-03       4.455933192805e+03 
       5.416189135831e-03       5.337560108618e+03 
       6.818578138182e-03       6.305518505681e+03 
       8.584081290461e-03       7.319538216683e+03 
       1.080671807347e-02       8.309714363424e+03 
       1.360485200078e-02       9.169531490681e+03 
       1.712749390673e-02       9.756395156859e+03 
       2.156223523046e-02       9.914262243228e+03 
       2.714441594976e-02       9.539762569294e+03 
       3.410589876826e-02       8.699751697873e+03 
       4.165112454130e-02       7.792992411580e+03 
       4.730617884838e-02       7.244396780362e+03 
       5.159882749610e-02       6.902495228654e+03 
       5.526205649629e-02       6.645557483714e+03 
       5.859320287913e-02       6.426454504058e+03 
       6.173383284031e-02       6.222892002102e+03 
       6.476264830451e-02       6.022863828170e+03 
       6.772853866512e-02       5.819776370594e+03 
       7.066449190895e-02       5.610482996715e+03 
       7.359426115389e-02       5.394333598484e+03 
       7.653588662223e-02       5.172593703353e+03 
       7.950370127738e-02       4.947978751947e+03 
       8.250954265279e-02       4.724200667251e+03 
       8.556352087132e-02       4.505492904515e+03 
       8.867452479996e-02       4.296117244899e+03 
       9.185056656813e-02       4.099877593423e+03 
       9.509902240467e-02       3.919673752190e+03 
       9.842680471358e-02       3.757131818110e+03 
       1.018404871931e-01       3.612345310437e+03 
       1.053463970483e-01       3.483761572786e+03 
       1.089506836167e-01       3.368248529498e+03 
       1.126593697558e-01       3.261377495377e+03 
       1.164783904422e-01       3.157946155896e+03 
       1.204136217893e-01       3.052730826976e+03 
       1.244709028696e-01       2.941390643008e+03 
       1.286560521833e-01       2.821362719263e+03 
       1.329748802530e-01       2.692518439303e+03 
       1.374331995792e-01       2.557343711832e+03 
       1.420368330393e-01       2.420496848220e+03 
       1.467916217061e-01       2.287772245983e+03 
       1.517034330000e-01       2.164693744125e+03 
       1.567781700494e-01       2.055096639242e+03 
       1.620217831062e-01       1.960078259516e+03 
       1.674402838502e-01       1.877624286898e+03 
       1.730397634027e-01       1.803093230147e+03 
       1.788264148640e-01       1.730567410091e+03 
       1.848065611873e-01       1.654802571637e+03 
       1.909866892072e-01       1.573151373872e+03 
       1.973734906587e-01       1.486611096554e+03 
       2.039739110633e-01       1.399357334496e+03 
       2.107952074236e-01       1.316824232471e+03 
       2.178450157776e-01       1.243187491526e+03 
       2.251314298266e-01       1.179460201596e+03 
       2.326630920836e-01       1.123136950492e+03 
       2.404492993148e-01       1.069628900666e+03 
       2.485001244944e-01       1.014856954411e+03 
       2.568265580850e-01       9.575727009777e+02 
       2.654406722519e-01       8.998645425756e+02 
       2.743558126664e-01       8.454022743436e+02 
       2.835868239403e-01       7.966684353155e+02 
       2.931503165721e-01       7.532429973272e+02 
       3.030649857454e-01       7.124166605505e+02 
       3.133519956225e-01       6.716077084192e+02 
       3.240354472896e-01       6.304942387030e+02 
       3.351429547132e-01       5.908810541657e+02 
       3.467063617523e-01       5.545031203925e+02 
       3.587626455794e-01       5.211627228249e+02 
       3.713550696152e-01       4.892109311177e+02 
       3.845346751310e-01       4.576514425442e+02 
       3.983622396196e-01       4.271322705913e+02 
       4.129108895290e-01       3.985930300201e+02 
       4.282696478934e-01       3.717340907768e+02 
       4.445483463472e-01       3.456630594812e+02 
       4.618845765208e-01       3.203745213720e+02 
       4.804537734312e-01       2.963235643485e+02 
       5.004842594271e-01       2.732292238038e+02 
       5.222804270698e-01       2.507135260813e+02 
       5.462598300111e-01       2.289147734223e+02 
       5.730151864125e-01       2.076358413852e+02 
       6.034235176017e-01       1.866499738264e+02 
       6.388503074798e-01       1.658078979539e+02 
       6.815595145587e-01       1.447809383506e+02 
       7.356045921374e-01       1.231844757229e+02 
       8.089073880445e-01       1.005034713641e+02 
       9.180423023734e-01       7.633970337300e+01 
       1.094325941268e+00       5.175708141648e+01 
       1.362840112584e+00       3.152086827618e+01 
       1.714949818793e+00       1.854195156084e+01 
       2.158985553493e+00       1.078381648108e+01 
       2.718001760824e+00       6.213469566709e+00 
       3.421761485999e+00       3.550116536833e+00 
       4.307742487822e+00       2.013013261694e+00 
       5.423126485385e+00       1.133582459604e+00 
       6.827311743825e+00       6.343542491852e-01 
       8.595076248542e+00       3.529558401253e-01 
       1.082055990560e+01       1.953562479423e-01 
