# Matter power spectrum P(k) at redshift z=1
# for k=1.95156e-07 to 12.3288 h/Mpc,
# number of wavenumbers equal to 140
#    1:k (h/Mpc)              2:P (Mpc/h)^3        
       1.951560737766e-07       5.443518084950e-01 
       2.456869405434e-07       6.806591228850e-01 
       3.093015327960e-07       8.510981944756e-01 
       3.893875595438e-07       1.064215716538e+00 
       4.902098937462e-07       1.330698499225e+00 
       6.171376923500e-07       1.663909360887e+00 
       7.769303234755e-07       2.080557207491e+00 
       9.780973274167e-07       2.601534901122e+00 
       1.231351580693e-06       3.252966931213e+00 
       1.550179795787e-06       4.067519422546e+00 
       1.951560737766e-06       5.086038165759e+00 
       2.456869405434e-06       6.359596800775e+00 
       3.093015327960e-06       7.952057843917e+00 
       3.893875595438e-06       9.943274949044e+00 
       4.902098937462e-06       1.243309690987e+01 
       6.171376923500e-06       1.554637406060e+01 
       7.769303234755e-06       1.943921785735e+01 
       9.780973274167e-06       2.430682701243e+01 
       1.231351580693e-05       3.039327161246e+01 
       1.550179795787e-05       3.800372381004e+01 
       1.951560737766e-05       4.751974441876e+01 
       2.456869405434e-05       5.941838401290e+01 
       3.093015327960e-05       7.429604067049e+01 
       3.893875595438e-05       9.289823965545e+01 
       4.902098937462e-05       1.161567668932e+02 
       6.171376923500e-05       1.452358970974e+02 
       7.769303234755e-05       1.815897954738e+02 
       9.780973274167e-05       2.270335021220e+02 
       1.231351580693e-04       2.838301410800e+02 
       1.550179795787e-04       3.547969494999e+02 
       1.951560737766e-04       4.434320439167e+02 
       2.456869405434e-04       5.540619146522e+02 
       3.093015327960e-04       6.920055221794e+02 
       3.893875595438e-04       8.637434776135e+02 
       4.902098937462e-04       1.077069817862e+03 
       6.171376923500e-04       1.341191833712e+03 
       7.769303234755e-04       1.666736109724e+03 
       9.780973274167e-04       2.065611914104e+03 
       1.231351580693e-03       2.550622795721e+03 
       1.550179795787e-03       3.134544608009e+03 
       1.951560737766e-03       3.828359587892e+03 
       2.456869405434e-03       4.638636754328e+03 
       3.093015327960e-03       5.563922928209e+03 
       3.893875595438e-03       6.590302213191e+03 
       4.902098937462e-03       7.685783110329e+03 
       6.171376923500e-03       8.794469038424e+03 
       7.769303234755e-03       9.831214965579e+03 
       9.780973274167e-03       1.067742422229e+04 
       1.231351580693e-02       1.118104353266e+04 
       1.550179795787e-02       1.116840312568e+04 
       1.951560734791e-02       1.048562788427e+04 
       2.456865962277e-02       9.094274707064e+03 
       3.092344992525e-02       7.214105719799e+03 
       3.863779297315e-02       5.421358737431e+03 
       4.576329915953e-02       4.412291929572e+03 
       5.086241444486e-02       3.992709776354e+03 
       5.496269737661e-02       3.770966956491e+03 
       5.857525312793e-02       3.621199252211e+03 
       6.191893183185e-02       3.495434108846e+03 
       6.510575327005e-02       3.370797535289e+03 
       6.820130013385e-02       3.235570363919e+03 
       7.124788912472e-02       3.084489260556e+03 
       7.427492675487e-02       2.916761063577e+03 
       7.730409996773e-02       2.734930817669e+03 
       8.035221403215e-02       2.543974751161e+03 
       8.343285267747e-02       2.350406343623e+03 
       8.655740304860e-02       2.161364121843e+03 
       8.973571683065e-02       1.983734080155e+03 
       9.297655232732e-02       1.823391930196e+03 
       9.628787899968e-02       1.684638019134e+03 
       9.967709246698e-02       1.569855870807e+03 
       1.031511693532e-01       1.479373721588e+03 
       1.067167805826e-01       1.411473862372e+03 
       1.103803752634e-01       1.362501523680e+03 
       1.141482433054e-01       1.327079426036e+03 
       1.180265623867e-01       1.298508022222e+03 
       1.220214332520e-01       1.269469930537e+03 
       1.261389062499e-01       1.233100219123e+03 
       1.303850013067e-01       1.184312263373e+03 
       1.347657230589e-01       1.121043932881e+03 
       1.392870725541e-01       1.044945771155e+03 
       1.439550567188e-01       9.611152268601e+02 
       1.487756966579e-01       8.768171999755e+02 
       1.537550357646e-01       7.995693843995e+02 
       1.588991485642e-01       7.352386979439e+02 
       1.642141511808e-01       6.867084177349e+02 
       1.697062142959e-01       6.533346244247e+02 
       1.753815794529e-01       6.311441473460e+02 
       1.812465795523e-01       6.137537617327e+02 
       1.873076643775e-01       5.941019545672e+02 
       1.935714319904e-01       5.668221536816e+02 
       2.000446668491e-01       5.303941981965e+02 
       2.067343855256e-01       4.877897074868e+02 
       2.136478909524e-01       4.449562945261e+02 
       2.207928362136e-01       4.078920721429e+02 
       2.281772990299e-01       3.799465470824e+02 
       2.358098682830e-01       3.605875877937e+02 
       2.436997442055e-01       3.459383542700e+02 
       2.518568542466e-01       3.308480765560e+02 
       2.602919871461e-01       3.117586302527e+02 
       2.690169484438e-01       2.887478808689e+02 
       2.780447415765e-01       2.651106482966e+02 
       2.873897799319e-01       2.446870481066e+02 
       2.970681368442e-01       2.290937625327e+02 
       3.070978426650e-01       2.168710437467e+02 
       3.174992409171e-01       2.049658459602e+02 
       3.282954194364e-01       1.913857540108e+02 
       3.395127377298e-01       1.767598595138e+02 
       3.511814791653e-01       1.632675055730e+02 
       3.633366669982e-01       1.521600935237e+02 
       3.760190980653e-01       1.426095686358e+02 
       3.892766695276e-01       1.329869168237e+02 
       4.031661058995e-01       1.229016809921e+02 
       4.177552416704e-01       1.133708668512e+02 
       4.331260889249e-01       1.050518945106e+02 
       4.493790363731e-01       9.733444361032e+01 
       4.666387158942e-01       8.957814460082e+01 
       4.850623894604e-01       8.213140846639e+01 
       5.048522560241e-01       7.532464276691e+01 
       5.262740573815e-01       6.877114120260e+01 
       5.496861922369e-01       6.237457358617e+01 
       5.755871356081e-01       5.632617506271e+01 
       6.046963882978e-01       5.042502730862e+01 
       6.381005338609e-01       4.467275138874e+01 
       6.775345113496e-01       3.899547276045e+01 
       7.259654880751e-01       3.331676641133e+01 
       7.889046318319e-01       2.752515164296e+01 
       8.775119592198e-01       2.150920983675e+01 
       1.015036366073e+00       1.529496648328e+01 
       1.237148160076e+00       9.561818533336e+00 
       1.552216937620e+00       5.534442819922e+00 
       1.953985925319e+00       3.151995758221e+00 
       2.459921778042e+00       1.781486486991e+00 
       3.096858036774e+00       1.000069999475e+00 
       3.898713279213e+00       5.579457126083e-01 
       4.908189220501e+00       3.095260360751e-01 
       6.179044135583e+00       1.708242610920e-01 
       7.778955682883e+00       9.382700622120e-02 
       9.793124986402e+00       5.130833794126e-02 
       1.232881390626e+01       2.794238228802e-02 
