# Matter power spectrum P(k) at redshift z=0.5
# for k=2.0417e-07 to 10.2446 h/Mpc,
# number of wavenumbers equal to 139
#    1:k (h/Mpc)              2:P (Mpc/h)^3        
       2.041702171830e-07       4.749473844057e-01 
       2.570350747432e-07       5.951898275830e-01 
       3.235879873166e-07       7.458740533722e-01 
       4.073731401842e-07       9.347070085186e-01 
       5.128523982602e-07       1.171346807357e+00 
       6.456429166694e-07       1.467896708693e+00 
       8.128162747400e-07       1.839524152558e+00 
       1.023275063390e-06       2.305236517880e+00 
       1.288226980557e-06       2.888853277316e+00 
       1.621781681982e-06       3.620224271352e+00 
       2.041702171830e-06       4.536756406294e+00 
       2.570350747432e-06       5.685326859053e+00 
       3.235879873166e-06       7.124680629813e+00 
       4.073731401842e-06       8.928435046081e+00 
       5.128523982602e-06       1.118884484666e+01 
       6.456429166694e-06       1.402152032984e+01 
       8.128162747400e-06       1.757133971348e+01 
       1.023275063390e-05       2.201985776828e+01 
       1.288226980557e-05       2.759458898504e+01 
       1.621781681982e-05       3.458063875048e+01 
       2.041702171830e-05       4.333527481463e+01 
       2.570350747432e-05       5.430617911277e+01 
       3.235879873166e-05       6.805430314663e+01 
       4.073731401842e-05       8.528247542579e+01 
       5.128523982602e-05       1.068711835761e+02 
       6.456429166694e-05       1.339232810542e+02 
       8.128162747400e-05       1.678197466327e+02 
       1.023275063390e-04       2.102890371432e+02 
       1.288226980557e-04       2.634929714178e+02 
       1.621781681982e-04       3.301323574023e+02 
       2.041702171830e-04       4.135755090528e+02 
       2.570350747432e-04       5.180120123200e+02 
       3.235879873166e-04       6.486320100975e+02 
       4.073731401842e-04       8.118272307171e+02 
       5.128523982602e-04       1.015403770108e+03 
       6.456429166694e-04       1.268789212407e+03 
       8.128162747400e-04       1.583208445659e+03 
       1.023275063390e-03       1.971781965048e+03 
       1.288226980557e-03       2.449432358154e+03 
       1.621781681982e-03       3.032384515961e+03 
       2.041702171830e-03       3.737067887635e+03 
       2.570350747432e-03       4.578197583432e+03 
       3.235879873166e-03       5.565693137706e+03 
       4.073731401842e-03       6.700291922462e+03 
       5.128523982602e-03       7.967332650245e+03 
       6.456429166694e-03       9.328921337811e+03 
       8.128162747400e-03       1.071479859043e+04 
       1.023275063390e-02       1.201278352039e+04 
       1.288226980557e-02       1.306237349122e+04 
       1.621781681953e-02       1.366075569334e+04 
       2.041702070683e-02       1.360147205501e+04 
       2.570302707647e-02       1.277339496837e+04 
       3.231352569502e-02       1.132205094935e+04 
       3.968479419532e-02       9.844885463963e+03 
       4.535971563005e-02       8.982494838577e+03 
       4.960729946002e-02       8.477199950113e+03 
       5.320019404592e-02       8.112085968840e+03 
       5.645183434186e-02       7.807796304010e+03 
       5.950876177009e-02       7.528554310113e+03 
       6.245137356484e-02       7.255829755202e+03 
       6.532913604229e-02       6.979843642275e+03 
       6.817518277206e-02       6.696209205449e+03 
       7.101323161328e-02       6.404316541339e+03 
       7.386120778415e-02       6.106345520910e+03 
       7.673329331089e-02       5.806487368355e+03 
       7.964115873352e-02       5.510212239686e+03 
       8.259474034134e-02       5.223535760387e+03 
       8.560275057488e-02       4.952294579764e+03 
       8.867302441059e-02       4.701469030372e+03 
       9.181276091355e-02       4.474598340181e+03 
       9.502869548333e-02       4.273331005874e+03 
       9.832722490097e-02       4.097146613458e+03 
       1.017144993806e-01       3.943282938168e+03 
       1.051964910191e-01       3.806906361329e+03 
       1.087790450291e-01       3.681569786124e+03 
       1.124679182139e-01       3.559985716215e+03 
       1.162688078915e-01       3.435092397982e+03 
       1.201873736439e-01       3.301292062579e+03 
       1.242292537207e-01       3.155620926567e+03 
       1.284000775581e-01       2.998522970059e+03 
       1.327054756298e-01       2.833917640637e+03 
       1.371510876906e-01       2.668408897964e+03 
       1.417425703659e-01       2.509746966721e+03 
       1.464856049793e-01       2.364912613886e+03 
       1.513859064664e-01       2.238329658704e+03 
       1.564492341986e-01       2.130679307911e+03 
       1.616814055258e-01       2.038650224046e+03 
       1.670883128337e-01       1.955789175824e+03 
       1.726759449042e-01       1.874401846454e+03 
       1.784504133686e-01       1.788100217118e+03 
       1.844179850416e-01       1.694138909272e+03 
       1.905851209474e-01       1.594454698434e+03 
       1.969585228787e-01       1.494714212640e+03 
       2.035451883945e-01       1.401657386844e+03 
       2.103524752631e-01       1.319979383753e+03 
       2.173881765050e-01       1.250254306871e+03 
       2.246606074143e-01       1.188888652397e+03 
       2.321787062381e-01       1.130180752252e+03 
       2.399521506151e-01       1.069530937260e+03 
       2.479914924344e-01       1.005993031807e+03 
       2.563083145217e-01       9.424448960229e+02 
       2.649154135491e-01       8.831822593084e+02 
       2.738270148701e-01       8.307033188274e+02 
       2.830590267130e-01       7.840766485330e+02 
       2.926293434788e-01       7.400468775873e+02 
       3.025582109973e-01       6.959086648225e+02 
       3.128686708291e-01       6.516462754004e+02 
       3.235871065199e-01       6.093804557830e+02 
       3.347439228450e-01       5.708134393857e+02 
       3.463744005882e-01       5.354640845806e+02 
       3.585197859715e-01       5.015289211712e+02 
       3.712286981109e-01       4.681332825908e+02 
       3.845589740994e-01       4.360635869707e+02 
       3.985801265007e-01       4.061808922834e+02 
       4.133766740690e-01       3.780499871285e+02 
       4.290527440035e-01       3.508150238400e+02 
       4.457385700165e-01       3.245473550321e+02 
       4.635998935924e-01       2.996355734351e+02 
       4.828519484295e-01       2.757531682388e+02 
       5.037809365185e-01       2.525760075282e+02 
       5.267782507925e-01       2.302154474967e+02 
       5.523974154870e-01       2.084576585288e+02 
       5.814537587112e-01       1.870976859958e+02 
       6.152096513037e-01       1.659748554482e+02 
       6.557437306715e-01       1.447813884555e+02 
       7.067468983599e-01       1.231511099368e+02 
       7.753692732106e-01       1.005931791417e+02 
       8.765186847178e-01       7.670164472532e+01 
       1.039178051930e+00       5.232132902799e+01 
       1.290575926919e+00       3.185258593673e+01 
       1.623671038535e+00       1.862904809337e+01 
       2.044067075690e+00       1.077317792757e+01 
       2.573327953106e+00       6.175518622287e+00 
       3.239627953036e+00       3.512005527900e+00 
       4.078449954835e+00       1.982953349007e+00 
       5.134464288873e+00       1.112321558951e+00 
       6.463907569212e+00       6.202397309732e-01 
       8.137577498370e+00       3.439701968224e-01 
       1.024460310314e+01       1.898051074464e-01 
