# Matter power spectrum P(k) at redshift z=2
# for k=2.18097e-07 to 10.9455 h/Mpc,
# number of wavenumbers equal to 139
#    1:k (h/Mpc)              2:P (Mpc/h)^3        
       2.180967700610e-07       2.023129261495e-01 
       2.745675660600e-07       2.508497261540e-01 
       3.456600861674e-07       3.110309671994e-01 
       4.351602663192e-07       3.856502617653e-01 
       5.478343174723e-07       4.781714362850e-01 
       6.896825437188e-07       5.928893222128e-01 
       8.682588803584e-07       7.351291216098e-01 
       1.093073168499e-06       9.114936027542e-01 
       1.376097588774e-06       1.130169599670e+00 
       1.732404223616e-06       1.401308044097e+00 
       2.180967700610e-06       1.737495168027e+00 
       2.745675660600e-06       2.154336751786e+00 
       3.456600861674e-06       2.671182534167e+00 
       4.351602663192e-06       3.312024405879e+00 
       5.478343174723e-06       4.106610073988e+00 
       6.896825437188e-06       5.091823871369e+00 
       8.682588803584e-06       6.313398774321e+00 
       1.093073168499e-05       7.828039024687e+00 
       1.376097588774e-05       9.706051746185e+00 
       1.732404223616e-05       1.203460943812e+01 
       2.180967700610e-05       1.492179423345e+01 
       2.745675660600e-05       1.850161057159e+01 
       3.456600861674e-05       2.294019685498e+01 
       4.351602663192e-05       2.844352024473e+01 
       5.478343174723e-05       3.526690357882e+01 
       6.896825437188e-05       4.372681062222e+01 
       8.682588803584e-05       5.421540513321e+01 
       1.093073168499e-04       6.721849816668e+01 
       1.376097588774e-04       8.333759681095e+01 
       1.732404223616e-04       1.033168457594e+02 
       2.180967700610e-04       1.280756662700e+02 
       2.745675660600e-04       1.587477620718e+02 
       3.456600861674e-04       1.967267331802e+02 
       4.351602663192e-04       2.437175983533e+02 
       5.478343174723e-04       3.017918290140e+02 
       6.896825437188e-04       3.734409765271e+02 
       8.682588803584e-04       4.616211531491e+02 
       1.093073168499e-03       5.697784755654e+02 
       1.376097588774e-03       7.018418173674e+02 
       1.732404223616e-03       8.621497695550e+02 
       2.180967700610e-03       1.055233183910e+03 
       2.745675660600e-03       1.285368173989e+03 
       3.456600861674e-03       1.555892471488e+03 
       4.351602663192e-03       1.868144974628e+03 
       5.478343174723e-03       2.219912122781e+03 
       6.896825437188e-03       2.603327263420e+03 
       8.682588803584e-03       3.002236038841e+03 
       1.093073168499e-02       3.389171672139e+03 
       1.376097588774e-02       3.722834907107e+03 
       1.732404223477e-02       3.948544289792e+03 
       2.180967367131e-02       4.007172180935e+03 
       2.745557879415e-02       3.860381650497e+03 
       3.447893077382e-02       3.535254202486e+03 
       4.192513838584e-02       3.189043776515e+03 
       4.742195712808e-02       2.977081288925e+03 
       5.163582030996e-02       2.839800336587e+03 
       5.525277659938e-02       2.734075353961e+03 
       5.855226812447e-02       2.642868508812e+03 
       6.166900117106e-02       2.557993779735e+03 
       6.467853625743e-02       2.475003151940e+03 
       6.762811742342e-02       2.391432696201e+03 
       7.054978206599e-02       2.306083184417e+03 
       7.346669194086e-02       2.218667319777e+03 
       7.639649746406e-02       2.129594845290e+03 
       7.935326231942e-02       2.039801743817e+03 
       8.234863057757e-02       1.950586385593e+03 
       8.539256857884e-02       1.863439000048e+03 
       8.849385505948e-02       1.779864934256e+03 
       9.166041543524e-02       1.701209052152e+03 
       9.489955587317e-02       1.628494123132e+03 
       9.821813075991e-02       1.562285512949e+03 
       1.016226646002e-01       1.502596339559e+03 
       1.051194419274e-01       1.448846739714e+03 
       1.087145742519e-01       1.399890432553e+03 
       1.124140502085e-01       1.354121447235e+03 
       1.162237732282e-01       1.309668045781e+03 
       1.201495898588e-01       1.264667147287e+03 
       1.241973110653e-01       1.217588787905e+03 
       1.283727283126e-01       1.167552169724e+03 
       1.326816258835e-01       1.114551948631e+03 
       1.371297906489e-01       1.059514678080e+03 
       1.417230203582e-01       1.004131550687e+03 
       1.464671314170e-01       9.504857196422e+02 
       1.513679670587e-01       9.005463529978e+02 
       1.564314067774e-01       8.556603714332e+02 
       1.616633778658e-01       8.161786031658e+02 
       1.670698698850e-01       7.813299994369e+02 
       1.726569528840e-01       7.494114398243e+02 
       1.784308001784e-01       7.182905135589e+02 
       1.843977164989e-01       6.861136306584e+02 
       1.905641723220e-01       6.519869667810e+02 
       1.969368452207e-01       6.163279856875e+02 
       2.035226691083e-01       5.806722088549e+02 
       2.103288923203e-01       5.469691433623e+02 
       2.173631455894e-01       5.166789145916e+02 
       2.246335211366e-01       4.901028818986e+02 
       2.321486643361e-01       4.662828919425e+02 
       2.399178797488e-01       4.435475049053e+02 
       2.479512537659e-01       4.204574467547e+02 
       2.562597967145e-01       3.966204802592e+02 
       2.648556080781e-01       3.728323302391e+02 
       2.737520695506e-01       3.504134401221e+02 
       2.829640720503e-01       3.302124759947e+02 
       2.925082846874e-01       3.120199248399e+02 
       3.024034761742e-01       2.948310439713e+02 
       3.126709025324e-01       2.777356925225e+02 
       3.233347795353e-01       2.606609749391e+02 
       3.344228646484e-01       2.442756512477e+02 
       3.459671820799e-01       2.291779045128e+02 
       3.580049371184e-01       2.152519461134e+02 
       3.705796840715e-01       2.018879336419e+02 
       3.837428387673e-01       1.887498565592e+02 
       3.975556664886e-01       1.760916622539e+02 
       4.120919372426e-01       1.642350343713e+02 
       4.274415357993e-01       1.530412652181e+02 
       4.437154673015e-01       1.421876124718e+02 
       4.610529525718e-01       1.316881445682e+02 
       4.796317391520e-01       1.216968165366e+02 
       4.996835172303e-01       1.120917962929e+02 
       5.215177334488e-01       1.027408286982e+02 
       5.455597990080e-01       9.369026069126e+01 
       5.724151728344e-01       8.485211488300e+01 
       6.029826029141e-01       7.614204890016e+01 
       6.386669370172e-01       6.748895396074e+01 
       6.818087750140e-01       5.875984782282e+01 
       7.366233500455e-01       4.979189540849e+01 
       8.113986956148e-01       4.037557360166e+01 
       9.235034154269e-01       3.036906211460e+01 
       1.104987200106e+00       2.030901918799e+01 
       1.378429268348e+00       1.223369953714e+01 
       1.734755057506e+00       7.138361473878e+00 
       2.183921503558e+00       4.117747231056e+00 
       2.749394268500e+00       2.352589544122e+00 
       3.461282311654e+00       1.332519803076e+00 
       4.357496259535e+00       7.488666556716e-01 
       5.485762772926e+00       4.178851610136e-01 
       6.906166157911e+00       2.316919901539e-01 
       8.694348074267e+00       1.277065569297e-01 
       1.094553572968e+01       7.001326224000e-02 
