# Matter power spectrum P(k) at redshift z=2
# for k=1.5759e-07 to 12.5306 h/Mpc,
# number of wavenumbers equal to 141
#    1:k (h/Mpc)              2:P (Mpc/h)^3        
       1.575898001593e-07       5.762999356704e-01 
       1.983938040601e-07       7.182217795886e-01 
       2.497630014738e-07       8.950938435944e-01 
       3.144329894814e-07       1.115523103267e+00 
       3.958476807645e-07       1.390236120626e+00 
       4.983427045142e-07       1.732601021132e+00 
       6.273762944952e-07       2.159278014598e+00 
       7.898199598972e-07       2.691030114670e+00 
       9.943244182569e-07       3.353733507458e+00 
       1.251780277711e-06       4.179636733885e+00 
       1.575898001593e-06       5.208929956253e+00 
       1.983938040601e-06       6.491700664618e+00 
       2.497630014738e-06       8.090370975031e+00 
       3.144329894814e-06       1.008273509615e+01 
       3.958476807645e-06       1.256574469941e+01 
       4.983427045142e-06       1.566022628850e+01 
       6.273762944952e-06       1.951675986665e+01 
       7.898199598972e-06       2.432300448529e+01 
       9.943244182569e-06       3.031282620359e+01 
       1.251780277711e-05       3.777767072085e+01 
       1.575898001593e-05       4.708073039426e+01 
       1.983938040601e-05       5.867458757665e+01 
       2.497630014738e-05       7.312317833296e+01 
       3.144329894814e-05       9.112911645149e+01 
       3.958476807645e-05       1.135676506352e+02 
       4.983427045142e-05       1.415287954935e+02 
       6.273762944952e-05       1.763694666673e+02 
       7.898199598972e-05       2.197777258017e+02 
       9.943244182569e-05       2.738514200460e+02 
       1.251780277711e-04       3.411934103443e+02 
       1.575898001593e-04       4.250248911137e+02 
       1.983938040601e-04       5.293164130391e+02 
       2.497630014738e-04       6.589321641202e+02 
       3.144329894814e-04       8.197755804269e+02 
       3.958476807645e-04       1.018912584894e+03 
       4.983427045142e-04       1.264634383697e+03 
       6.273762944952e-04       1.566412088620e+03 
       7.898199598972e-04       1.934698635436e+03 
       9.943244182569e-04       2.380520790925e+03 
       1.251780277711e-03       2.914663136215e+03 
       1.575898001593e-03       3.546020805314e+03 
       1.983938040601e-03       4.279014634496e+03 
       2.497630014738e-03       5.110409185444e+03 
       3.144329894814e-03       6.025187011019e+03 
       3.958476807645e-03       6.991274134708e+03 
       4.983427045142e-03       7.954260239995e+03 
       6.273762944952e-03       8.831938499597e+03 
       7.898199598972e-03       9.510155692979e+03 
       9.943244182569e-03       9.843067074233e+03 
       1.251780277709e-02       9.667572804870e+03 
       1.575897988713e-02       8.852239256373e+03 
       1.983928298942e-02       7.403768071685e+03 
       2.496288698846e-02       5.606842821889e+03 
       3.099903216498e-02       4.081844796730e+03 
       3.608477296443e-02       3.350997816703e+03 
       3.977369387210e-02       3.056028803046e+03 
       4.281625562827e-02       2.905458955031e+03 
       4.553307150143e-02       2.808411842824e+03 
       4.806709051990e-02       2.727718220933e+03 
       5.049398293120e-02       2.644578137473e+03 
       5.285912504013e-02       2.548863828500e+03 
       5.519232478540e-02       2.435803664945e+03 
       5.751459079609e-02       2.304580817713e+03 
       5.984159770718e-02       2.157499408065e+03 
       6.218561187834e-02       1.999245053264e+03 
       6.455663251809e-02       1.836082297299e+03 
       6.696310356839e-02       1.674980700828e+03 
       6.941237681835e-02       1.522743615099e+03 
       7.191102376424e-02       1.385245456383e+03 
       7.446505169605e-02       1.266868569593e+03 
       7.708005698034e-02       1.170183449835e+03 
       7.976133587845e-02       1.095848243693e+03 
       8.251396586657e-02       1.042649920651e+03 
       8.534286597183e-02       1.007605984306e+03 
       8.825284187177e-02       9.861015595909e+02 
       9.124861974388e-02       9.721367113625e+02 
       9.433487170908e-02       9.588376358331e+02 
       9.751623496151e-02       9.393677431666e+02 
       1.007973261777e-01       9.082107302370e+02 
       1.041827524658e-01       8.625341540963e+02 
       1.076771198936e-01       8.031212290270e+02 
       1.112850404912e-01       7.343694852355e+02 
       1.150111385255e-01       6.631791651111e+02 
       1.188600567891e-01       5.970619328103e+02 
       1.228364636031e-01       5.421708391205e+02 
       1.269450612140e-01       5.019057275444e+02 
       1.311905962473e-01       4.763327955408e+02 
       1.355778728732e-01       4.622732488236e+02 
       1.401117693290e-01       4.539462173412e+02 
       1.447972584445e-01       4.443499818489e+02 
       1.496394328152e-01       4.275011877903e+02 
       1.546435352799e-01       4.008828406126e+02 
       1.598149953838e-01       3.666612772910e+02 
       1.651594725520e-01       3.305836634274e+02 
       1.706829067716e-01       2.990490608596e+02 
       1.763915776937e-01       2.761388622096e+02 
       1.822921732277e-01       2.620843857811e+02 
       1.883918689356e-01       2.534728011805e+02 
       1.946984198443e-01       2.449795760891e+02 
       2.012202667269e-01       2.322558192337e+02 
       2.079666594673e-01       2.145712747391e+02 
       2.149478008787e-01       1.950609397870e+02 
       2.221750153416e-01       1.781134542106e+02 
       2.296609479430e-01       1.661138784618e+02 
       2.374198015583e-01       1.580251467182e+02 
       2.454676216728e-01       1.505369325234e+02 
       2.538226419383e-01       1.409416251032e+02 
       2.625057078493e-01       1.294532169036e+02 
       2.715408020220e-01       1.185752109441e+02 
       2.809557031730e-01       1.101945710832e+02 
       2.907828232282e-01       1.037019569846e+02 
       3.010602849871e-01       9.705732764370e+01 
       3.118333294832e-01       8.943130161527e+01 
       3.231561826764e-01       8.201337046990e+01 
       3.350945738589e-01       7.591255118088e+01 
       3.477291977771e-01       7.050673558887e+01 
       3.611605750007e-01       6.479292827269e+01 
       3.755160383505e-01       5.915430523472e+01 
       3.909600485685e-01       5.421293778017e+01 
       4.077099015765e-01       4.946540255704e+01 
       4.260605112928e-01       4.469948317022e+01 
       4.464251674046e-01       4.028927723830e+01 
       4.694059105326e-01       3.595112842467e+01 
       4.959222289736e-01       3.172314322212e+01 
       5.274628218192e-01       2.754238619703e+01 
       5.666174334697e-01       2.335742681286e+01 
       6.182908914073e-01       1.907378230629e+01 
       6.925714951679e-01       1.462304133725e+01 
       8.100458135491e-01       1.009110585977e+01 
       9.970155666362e-01       6.129616079403e+00 
       1.253096155462e+00       3.511830728730e+00 
       1.577515367003e+00       1.988290738811e+00 
       1.985974037567e+00       1.117545338629e+00 
       2.500193182981e+00       6.240195407583e-01 
       3.147556732449e+00       3.463594369585e-01 
       3.962539155544e+00       1.911929815180e-01 
       4.988541238144e+00       1.050090634924e-01 
       6.280201332482e+00       5.740667219925e-02 
       7.906305048646e+00       3.124834106458e-02 
       9.953448339137e+00       1.694132221852e-02 
       1.253064904912e+01       9.150115670978e-03 
