# Matter power spectrum P(k) at redshift z=1
# for k=2.25597e-07 to 11.3224 h/Mpc,
# number of wavenumbers equal to 139
#    1:k (h/Mpc)              2:P (Mpc/h)^3        
       2.255969486845e-07       2.392786515271e-01 
       2.840097315221e-07       3.002713885996e-01 
       3.575470682100e-07       3.768113293959e-01 
       4.501250900821e-07       4.728614956946e-01 
       5.666739143905e-07       5.933950933423e-01 
       7.134001910271e-07       7.446530109112e-01 
       8.981176292628e-07       9.344669548526e-01 
       1.130663106259e-06       1.172664952685e+00 
       1.423420516648e-06       1.471580219297e+00 
       1.791980260077e-06       1.846689734442e+00 
       2.255969486845e-06       2.317415592181e+00 
       2.840097315221e-06       2.908130614714e+00 
       3.575470682100e-06       3.649420291622e+00 
       4.501250900821e-06       4.579666378858e+00 
       5.666739143905e-06       5.747034133738e+00 
       7.134001910271e-06       7.211966050057e+00 
       8.981176292628e-06       9.050311149558e+00 
       1.130663106259e-05       1.135725173211e+01 
       1.423420516648e-05       1.425223065375e+01 
       1.791980260077e-05       1.788513377414e+01 
       2.255969486845e-05       2.244404670108e+01 
       2.840097315221e-05       2.816498554917e+01 
       3.575470682100e-05       3.534410169664e+01 
       4.501250900821e-05       4.435298489645e+01 
       5.666739143905e-05       5.565784197829e+01 
       7.134001910271e-05       6.984351429919e+01 
       8.981176292628e-05       8.764351822674e+01 
       1.130663106259e-04       1.099775472092e+02 
       1.423420516648e-04       1.379981473471e+02 
       1.791980260077e-04       1.731485344533e+02 
       2.255969486845e-04       2.172336794613e+02 
       2.840097315221e-04       2.725066968395e+02 
       3.575470682100e-04       3.417719667491e+02 
       4.501250900821e-04       4.285049405616e+02 
       5.666739143905e-04       5.369858895090e+02 
       7.134001910271e-04       6.724410382375e+02 
       8.981176292628e-04       8.411802249702e+02 
       1.130663106259e-03       1.050713928725e+03 
       1.423420516648e-03       1.309811414116e+03 
       1.791980260077e-03       1.628406677269e+03 
       2.255969486845e-03       2.017217411842e+03 
       2.840097315221e-03       2.486975148753e+03 
       3.575470682100e-03       3.047070591901e+03 
       4.501250900821e-03       3.703402235102e+03 
       5.666739143905e-03       4.455163313064e+03 
       7.134001910271e-03       5.290389643690e+03 
       8.981176292628e-03       6.180315226756e+03 
       1.130663106259e-02       7.072846467930e+03 
       1.423420516648e-02       7.886888113158e+03 
       1.791980259836e-02       8.512192037474e+03 
       2.255968977674e-02       8.825020499942e+03 
       2.839935139006e-02       8.734179445807e+03 
       3.564460217390e-02       8.263984330025e+03 
       4.316904578222e-02       7.685719862791e+03 
       4.866423687340e-02       7.295447485266e+03 
       5.291282822981e-02       7.018206689750e+03 
       5.657729830003e-02       6.790018010559e+03 
       5.992901641417e-02       6.584369067050e+03 
       6.310019094098e-02       6.388383199099e+03 
       6.616554693769e-02       6.195207586648e+03 
       6.917206587728e-02       6.001274246233e+03 
       7.215174361928e-02       5.805119925966e+03 
       7.512779201901e-02       5.606771162240e+03 
       7.811795096514e-02       5.407344194681e+03 
       8.113639050350e-02       5.208717987347e+03 
       8.419486793405e-02       5.013224373881e+03 
       8.730346519944e-02       4.823337527184e+03 
       9.047107706562e-02       4.641365154482e+03 
       9.370574465694e-02       4.469156706357e+03 
       9.701488933780e-02       4.307851578679e+03 
       1.004054802388e-01       4.157692667603e+03 
       1.038841563080e-01       4.017932619580e+03 
       1.074573163961e-01       3.886859195287e+03 
       1.111311863637e-01       3.761960242514e+03 
       1.149118693621e-01       3.640235889133e+03 
       1.188053836081e-01       3.518641436133e+03 
       1.228176907822e-01       3.394610623967e+03 
       1.269547173896e-01       3.266567574247e+03 
       1.312223708965e-01       3.134307562395e+03 
       1.356265521054e-01       2.999123270678e+03 
       1.401731650024e-01       2.863595404151e+03 
       1.448681251556e-01       2.731046208314e+03 
       1.497173676479e-01       2.604756887323e+03 
       1.547268554668e-01       2.487135326605e+03 
       1.599025892325e-01       2.379060000697e+03 
       1.652506191251e-01       2.279608376201e+03 
       1.707770598536e-01       2.186300250915e+03 
       1.764881095003e-01       2.095855483078e+03 
       1.823900730655e-01       2.005286912017e+03 
       1.884893915407e-01       1.912969076993e+03 
       1.947926773393e-01       1.819238581949e+03 
       2.013067569412e-01       1.726202906827e+03 
       2.080387216452e-01       1.636769816313e+03 
       2.149959873991e-01       1.553307094601e+03 
       2.221863647931e-01       1.476566457166e+03 
       2.296181404732e-01       1.405414782293e+03 
       2.373001714843e-01       1.337537197968e+03 
       2.452419943934e-01       1.270763844074e+03 
       2.534539515152e-01       1.204266998161e+03 
       2.619473371901e-01       1.138873886505e+03 
       2.707345679014e-01       1.076281128223e+03 
       2.798293811186e-01       1.017737092435e+03 
       2.892470692182e-01       9.631668953951e+02 
       2.990047567706e-01       9.113784924183e+02 
       3.091217320711e-01       8.611274505956e+02 
       3.196198472944e-01       8.120941799688e+02 
       3.305240064107e-01       7.649065770935e+02 
       3.418627665923e-01       7.202679035082e+02 
       3.536690880481e-01       6.781525012559e+02 
       3.659812803271e-01       6.379086432576e+02 
       3.788442120598e-01       5.990386418451e+02 
       3.923108789424e-01       5.616378730705e+02 
       4.064444665191e-01       5.259897885648e+02 
       4.213211082393e-01       4.920030216483e+02 
       4.370336394776e-01       4.593258663939e+02 
       4.536968093360e-01       4.278241119453e+02 
       4.714546786951e-01       3.975559714565e+02 
       4.904913885083e-01       3.684101028151e+02 
       5.110472890571e-01       3.401774375150e+02 
       5.334439087786e-01       3.127711660453e+02 
       5.581241150679e-01       2.860619838332e+02 
       5.857196690350e-01       2.598442273773e+02 
       6.171710123236e-01       2.339224609165e+02 
       6.539532897204e-01       2.080059978110e+02 
       6.985347930285e-01       1.817151355435e+02 
       7.553835634147e-01       1.545118335728e+02 
       8.333305228866e-01       1.257097811364e+02 
       9.508966578340e-01       9.484669781024e+01 
       1.141467821676e+00       6.370843691169e+01 
       1.425787402870e+00       3.879573360439e+01 
       1.794488490058e+00       2.295251295431e+01 
       2.259122972842e+00       1.342377761299e+01 
       2.844067312566e+00       7.774233651350e+00 
       3.580468612642e+00       4.462788852821e+00 
       4.507542922586e+00       2.541523682481e+00 
       5.674660329997e+00       1.436972762407e+00 
       7.143974092733e+00       8.071555456386e-01 
       8.993730526541e+00       4.506853852707e-01 
       1.132243590669e+01       2.502765022853e-01 
