# Matter power spectrum P(k) at redshift z=1.5
# for k=1.71367e-07 to 10.8237 h/Mpc,
# number of wavenumbers equal to 140
#    1:k (h/Mpc)              2:P (Mpc/h)^3        
       1.713665880324e-07       5.713150234969e-01 
       2.157377524064e-07       7.139793382171e-01 
       2.715977387878e-07       8.922686677275e-01 
       3.419212951458e-07       1.115079011237e+00 
       4.304534072926e-07       1.393527805905e+00 
       5.419087330340e-07       1.741508646383e+00 
       6.822226748897e-07       2.176384523445e+00 
       8.588674619209e-07       2.719854170180e+00 
       1.081250073175e-06       3.399034743999e+00 
       1.361213193625e-06       4.247814856869e+00 
       1.713665880324e-06       5.308545463419e+00 
       2.157377524064e-06       6.634152953302e+00 
       2.715977387878e-06       8.290779856247e+00 
       3.419212951458e-06       1.036108485399e+01 
       4.304534072926e-06       1.294836662911e+01 
       5.419087330340e-06       1.618171706458e+01 
       6.822226748897e-06       2.022246041168e+01 
       8.588674619209e-06       2.527219873273e+01 
       1.081250073175e-05       3.158286306687e+01 
       1.361213193625e-05       3.946926794631e+01 
       1.713665880324e-05       4.932478794101e+01 
       2.157377524064e-05       6.164092311627e+01 
       2.715977387878e-05       7.703169936613e+01 
       3.419212951458e-05       9.626406112967e+01 
       4.304534072926e-05       1.202956545968e+02 
       5.419087330340e-05       1.503216528522e+02 
       6.822226748897e-05       1.878324991635e+02 
       8.588674619209e-05       2.346845463667e+02 
       1.081250073175e-04       2.931853542485e+02 
       1.361213193625e-04       3.661944904033e+02 
       1.713665880324e-04       4.572383571065e+02 
       2.157377524064e-04       5.706326357008e+02 
       2.715977387878e-04       7.115966359236e+02 
       3.419212951458e-04       8.863283628985e+02 
       4.304534072926e-04       1.101987972195e+03 
       5.419087330340e-04       1.366518914405e+03 
       6.822226748897e-04       1.688242112694e+03 
       8.588674619209e-04       2.075202091591e+03 
       1.081250073175e-03       2.534232711052e+03 
       1.361213193625e-03       3.069431131706e+03 
       1.713665880324e-03       3.679587022971e+03 
       2.157377524064e-03       4.355176448741e+03 
       2.715977387878e-03       5.075610470746e+03 
       3.419212951458e-03       5.807098490221e+03 
       4.304534072926e-03       6.501909326261e+03 
       5.419087330340e-03       7.100332098627e+03 
       6.822226748897e-03       7.535519244326e+03 
       8.588674619209e-03       7.740561619679e+03 
       1.081250073175e-02       7.656937618244e+03 
       1.361213193625e-02       7.244348736674e+03 
       1.713665880315e-02       6.494810535799e+03 
       2.157377482553e-02       5.456018195304e+03 
       2.715952188210e-02       4.260807571009e+03 
       3.416311987835e-02       3.132024783105e+03 
       4.222976910041e-02       2.332145923667e+03 
       4.872542769831e-02       1.954451722933e+03 
       5.350042064641e-02       1.759148355372e+03 
       5.748734659917e-02       1.621637975177e+03 
       6.107064002254e-02       1.506251467298e+03 
       6.442555447662e-02       1.400380882278e+03 
       6.764645455271e-02       1.299317216048e+03 
       7.079062184881e-02       1.201767572997e+03 
       7.389603320219e-02       1.108084882487e+03 
       7.698965138397e-02       1.019378737319e+03 
       8.009171566943e-02       9.369826698899e+02 
       8.321814626125e-02       8.621057803302e+02 
       8.638197860635e-02       7.956071901031e+02 
       8.959426302849e-02       7.378654927663e+02 
       9.286465257902e-02       6.887253572269e+02 
       9.620180034631e-02       6.475043655517e+02 
       9.961363558369e-02       6.130476786817e+02 
       1.031075600670e-01       5.838244320872e+02 
       1.066905903341e-01       5.580674839112e+02 
       1.103694622190e-01       5.339595220555e+02 
       1.141507084941e-01       5.098588620488e+02 
       1.180407169426e-01       4.845378487465e+02 
       1.220457739587e-01       4.573823295200e+02 
       1.261720973212e-01       4.284896985829e+02 
       1.304258608363e-01       3.986167417454e+02 
       1.348132129094e-01       3.689709225747e+02 
       1.393402906835e-01       3.408923983293e+02 
       1.440132311020e-01       3.155143915122e+02 
       1.488381800693e-01       2.934940692777e+02 
       1.538213007628e-01       2.748780071011e+02 
       1.589687820753e-01       2.591253702057e+02 
       1.642868481171e-01       2.452795265860e+02 
       1.697817696812e-01       2.322527712042e+02 
       1.754598785519e-01       2.191554538191e+02 
       1.813275855271e-01       2.055626128144e+02 
       1.873914030172e-01       1.916052051433e+02 
       1.936579730755e-01       1.778347952618e+02 
       2.001341017241e-01       1.649224999539e+02 
       2.068268004521e-01       1.533402073297e+02 
       2.137433357977e-01       1.431734637477e+02 
       2.208912879895e-01       1.341379290419e+02 
       2.282786197274e-01       1.257700694901e+02 
       2.359137563341e-01       1.176818170503e+02 
       2.438056787437e-01       1.097370711742e+02 
       2.519640311062e-01       1.020536953794e+02 
       2.603992452270e-01       9.485019488954e+01 
       2.691226846505e-01       8.826117803141e+01 
       2.781468119755e-01       8.225266923417e+01 
       2.874853840315e-01       7.667720545587e+01 
       2.971536809128e-01       7.139934489907e+01 
       3.071687766848e-01       6.637907094556e+01 
       3.175498619989e-01       6.165389746654e+01 
       3.283186321058e-01       5.725994688262e+01 
       3.394997581784e-01       5.318035191707e+01 
       3.511214659267e-01       4.936294373169e+01 
       3.632162539506e-01       4.576885804839e+01 
       3.758217962290e-01       4.239052153798e+01 
       3.889820903202e-01       3.922851534716e+01 
       4.027489379326e-01       3.626871698779e+01 
       4.171838818761e-01       3.348829404336e+01 
       4.323607801453e-01       3.087179854452e+01 
       4.483692860548e-01       2.841085552239e+01 
       4.653196437623e-01       2.609460711664e+01 
       4.833494383710e-01       2.390962893954e+01 
       5.026333277669e-01       2.184469658980e+01 
       5.233974611070e-01       1.988979122827e+01 
       5.459415197596e-01       1.803248158934e+01 
       5.706736525483e-01       1.626197870922e+01 
       5.981682382154e-01       1.456577997232e+01 
       6.292662522217e-01       1.293010002239e+01 
       6.652601778949e-01       1.133862344838e+01 
       7.082588762485e-01       9.772656512756e+00 
       7.619656782457e-01       8.208557295520e+00 
       8.334687177962e-01       6.619067213836e+00 
       9.374501729788e-01       4.982837337089e+00 
       1.103316163686e+00       3.349047248797e+00 
       1.364125137969e+00       1.984686072927e+00 
       1.715461948710e+00       1.120299237929e+00 
       2.159609118865e+00       6.265912012097e-01 
       2.718786710749e+00       3.483747439783e-01 
       3.422749679375e+00       1.926451268772e-01 
       4.308986549575e+00       1.060015857135e-01 
       5.424692666339e+00       5.806077623605e-02 
       6.829283448828e+00       3.166820224230e-02 
       8.597558478075e+00       1.720550813519e-02 
       1.082368484743e+01       9.313906713215e-03 
