# Matter power spectrum P(k) at redshift z=1
# for k=1.8143e-07 to 11.4595 h/Mpc,
# number of wavenumbers equal to 140
#    1:k (h/Mpc)              2:P (Mpc/h)^3        
       1.814297207980e-07       1.274167346192e+00 
       2.284064859673e-07       1.578761294701e+00 
       2.875467294028e-07       1.956169440154e+00 
       3.619998847235e-07       2.423798258151e+00 
       4.557308539450e-07       3.003215298734e+00 
       5.737311529701e-07       3.721143904250e+00 
       7.222847280120e-07       4.610695717047e+00 
       9.093025986451e-07       5.712897818691e+00 
       1.144744148445e-06       7.078584935070e+00 
       1.441147498480e-06       8.770743969061e+00 
       1.814297207980e-06       1.086741898752e+01 
       2.284064859673e-06       1.346531062142e+01 
       2.875467294028e-06       1.668423585974e+01 
       3.619998847235e-06       2.067265384508e+01 
       4.557308539450e-06       2.561451239931e+01 
       5.737311529701e-06       3.173773077182e+01 
       7.222847280120e-06       3.932470931679e+01 
       9.093025986451e-06       4.872534976773e+01 
       1.144744148445e-05       6.037318455250e+01 
       1.441147498480e-05       7.480535505819e+01 
       1.814297207980e-05       9.268735231611e+01 
       2.284064859673e-05       1.148436456592e+02 
       2.875467294028e-05       1.422955815392e+02 
       3.619998847235e-05       1.763082406514e+02 
       4.557308539450e-05       2.184482975840e+02 
       5.737311529701e-05       2.706553223836e+02 
       7.222847280120e-05       3.353293659659e+02 
       9.093025986451e-05       4.154379994865e+02 
       1.144744148445e-04       5.146460629492e+02 
       1.441147498480e-04       6.374708836667e+02 
       1.814297207980e-04       7.894640293068e+02 
       2.284064859673e-04       9.774167180775e+02 
       2.875467294028e-04       1.209578298539e+03 
       3.619998847235e-04       1.495864198158e+03 
       4.557308539450e-04       1.848011638970e+03 
       5.737311529701e-04       2.279623717586e+03 
       7.222847280120e-04       2.806035648392e+03 
       9.093025986451e-04       3.443929867894e+03 
       1.144744148445e-03       4.210522206886e+03 
       1.441147498480e-03       5.121866718068e+03 
       1.814297207980e-03       6.189888061318e+03 
       2.284064859673e-03       7.418313815754e+03 
       2.875467294028e-03       8.797353862024e+03 
       3.619998847235e-03       1.029751429051e+04 
       4.557308539450e-03       1.186276880001e+04 
       5.737311529701e-03       1.340475448106e+04 
       7.222847280120e-03       1.479920357373e+04 
       9.093025986451e-03       1.588624330047e+04 
       1.144744148445e-02       1.647793120291e+04 
       1.441147498478e-02       1.638086517295e+04 
       1.814297197225e-02       1.544986812203e+04 
       2.284056030523e-02       1.369012518079e+04 
       2.874167768572e-02       1.138779192769e+04 
       3.574304758772e-02       9.207319729660e+03 
       4.174659706263e-02       7.923250612033e+03 
       4.608372164626e-02       7.249486689804e+03 
       4.964406739061e-02       6.794064627066e+03 
       5.281531419879e-02       6.428313009316e+03 
       5.576891850616e-02       6.101916273181e+03 
       5.859506154712e-02       5.791864741491e+03 
       6.134757428175e-02       5.487520661806e+03 
       6.406169716977e-02       5.185009382055e+03 
       6.676220014468e-02       4.884578362230e+03 
       6.946752269918e-02       4.589039806951e+03 
       7.219206739123e-02       4.302651406560e+03 
       7.494755554104e-02       4.030205614192e+03 
       7.774387128135e-02       3.776260856253e+03 
       8.058960974849e-02       3.544509193711e+03 
       8.349244573165e-02       3.337295606515e+03 
       8.645938882219e-02       3.155302865333e+03 
       8.949696423953e-02       2.997407797232e+03 
       9.261134346636e-02       2.860714418656e+03 
       9.580844005681e-02       2.740774805283e+03 
       9.909398069364e-02       2.632014616378e+03 
       1.024735582883e-01       2.528374861374e+03 
       1.059526718308e-01       2.424142864578e+03 
       1.095367563421e-01       2.314875142976e+03 
       1.132312053945e-01       2.198227745329e+03 
       1.170413880710e-01       2.074457039521e+03 
       1.209726618446e-01       1.946380444229e+03 
       1.250303825942e-01       1.818718015620e+03 
       1.292199128036e-01       1.696931865801e+03 
       1.335466288767e-01       1.585858531624e+03 
       1.380159284318e-01       1.488500695649e+03 
       1.426332383926e-01       1.405290611912e+03 
       1.474040246663e-01       1.334010252985e+03 
       1.523338041800e-01       1.270420116020e+03 
       1.574281600380e-01       1.209509949478e+03 
       1.626927605505e-01       1.147085626916e+03 
       1.681333828843e-01       1.081169810307e+03 
       1.737559420855e-01       1.012597603627e+03 
       1.795665262367e-01       9.444443705968e+02 
       1.855714385395e-01       8.804914095273e+02 
       1.917772471618e-01       8.234609470534e+02 
       1.981908437740e-01       7.738638357506e+02 
       2.048195118261e-01       7.299708968331e+02 
       2.116710058054e-01       6.888813012854e+02 
       2.187536429780e-01       6.481336516983e+02 
       2.260764094816e-01       6.069599968710e+02 
       2.336490831264e-01       5.664113004000e+02 
       2.414823759137e-01       5.283083225410e+02 
       2.495881001481e-01       4.938216370305e+02 
       2.579793631613e-01       4.627196755217e+02 
       2.666707971805e-01       4.337547126953e+02 
       2.756788328931e-01       4.057637141655e+02 
       2.850220279619e-01       3.785130425739e+02 
       2.947214654192e-01       3.525868374866e+02 
       3.048012418952e-01       3.285560561803e+02 
       3.152890726321e-01       3.063479242725e+02 
       3.262170500947e-01       2.854194098858e+02 
       3.376226071071e-01       2.653958644852e+02 
       3.495497560242e-01       2.463548748652e+02 
       3.620507059705e-01       2.284871756388e+02 
       3.751880064130e-01       2.117156352493e+02 
       3.890374368899e-01       1.958042855878e+02 
       4.036919762104e-01       1.806668634624e+02 
       4.192673693654e-01       1.663361470964e+02 
       4.359101209038e-01       1.527483042230e+02 
       4.538092828292e-01       1.397859058040e+02 
       4.732143780739e-01       1.274017835818e+02 
       4.944636334447e-01       1.155380083349e+02 
       5.180303219461e-01       1.041015849016e+02 
       5.446025989793e-01       9.301427064465e+01 
       5.752291099597e-01       8.217259568459e+01 
       6.116029471043e-01       7.145322869702e+01 
       6.566594248065e-01       6.069648938700e+01 
       7.159365229481e-01       4.969923580928e+01 
       8.007925200902e-01       3.825979746174e+01 
       9.345308927885e-01       2.655898863580e+01 
       1.148176377443e+00       1.620805242484e+01 
       1.442705024786e+00       9.289910963412e+00 
       1.816202126290e+00       5.255186920784e+00 
       2.286462786051e+00       2.949637865348e+00 
       2.878486104353e+00       1.643984503048e+00 
       3.623799304266e+00       9.104434148167e-01 
       4.562093031382e+00       5.012768862101e-01 
       5.743334848176e+00       2.745286607704e-01 
       7.230430188812e+00       1.496141837767e-01 
       9.102572302899e+00       8.117080591678e-02 
       1.145945958481e+01       4.385454132100e-02 
