# Matter power spectrum P(k) at redshift z=0
# for k=2.04008e-07 to 10.2369 h/Mpc,
# number of wavenumbers equal to 139
#    1:k (h/Mpc)              2:P (Mpc/h)^3        
       2.040079949721e-07       1.185891441273e+00 
       2.568308490795e-07       1.477729470157e+00 
       3.233308824389e-07       1.841386412167e+00 
       4.070494643201e-07       2.294536304413e+00 
       5.124449144898e-07       2.859202616909e+00 
       6.451299249959e-07       3.562828611196e+00 
       8.121704564862e-07       4.439611104738e+00 
       1.022462026379e-06       5.532162462227e+00 
       1.287203427603e-06       6.893581586350e+00 
       1.620493105158e-06       8.590034557832e+00 
       2.040079949721e-06       1.070397033825e+01 
       2.568308490795e-06       1.333812781094e+01 
       3.233308824389e-06       1.662052888247e+01 
       4.070494643201e-06       2.071070026591e+01 
       5.124449144898e-06       2.580742623864e+01 
       6.451299249959e-06       3.215840898545e+01 
       8.121704564862e-06       4.007230566790e+01 
       1.022462026379e-05       4.993372652878e+01 
       1.287203427603e-05       6.222192155336e+01 
       1.620493105158e-05       7.753406112883e+01 
       2.040079949721e-05       9.661423671812e+01 
       2.568308490795e-05       1.203895802973e+02 
       3.233308824389e-05       1.500152368151e+02 
       4.070494643201e-05       1.869303337052e+02 
       5.124449144898e-05       2.329275854850e+02 
       6.451299249959e-05       2.902397549712e+02 
       8.121704564862e-05       3.616468568773e+02 
       1.022462026379e-04       4.506086968930e+02 
       1.287203427603e-04       5.614279920288e+02 
       1.620493105158e-04       6.994497087501e+02 
       2.040079949721e-04       8.713019929634e+02 
       2.568308490795e-04       1.085182499713e+03 
       3.233308824389e-04       1.351190174765e+03 
       4.070494643201e-04       1.681695820786e+03 
       5.124449144898e-04       2.091735250004e+03 
       6.451299249959e-04       2.599397350210e+03 
       8.121704564862e-04       3.226159762657e+03 
       1.022462026379e-03       3.997064519991e+03 
       1.287203427603e-03       4.940494064276e+03 
       1.620493105158e-03       6.087228333185e+03 
       2.040079949721e-03       7.468465256662e+03 
       2.568308490795e-03       9.112199174755e+03 
       3.233308824389e-03       1.103754313594e+04 
       4.070494643201e-03       1.324640522794e+04 
       5.124449144898e-03       1.571160317480e+04 
       6.451299249959e-03       1.836151298281e+04 
       8.121704564862e-03       2.106161544332e+04 
       1.022462026379e-02       2.359437998493e+04 
       1.287203427603e-02       2.564451322959e+04 
       1.620493105117e-02       2.680853839744e+04 
       2.040079818484e-02       2.667076170597e+04 
       2.568250273475e-02       2.500376695679e+04 
       3.228120138100e-02       2.210172876318e+04 
       3.956250539954e-02       1.919183627937e+04 
       4.510669780553e-02       1.751943581309e+04 
       4.927883997972e-02       1.654181702164e+04 
       5.282021037915e-02       1.584089850982e+04 
       5.603122595030e-02       1.526184416191e+04 
       5.905333703701e-02       1.473347522171e+04 
       6.196454900110e-02       1.421802708919e+04 
       6.481303583680e-02       1.369484154222e+04 
       6.763115751701e-02       1.315394124762e+04 
       7.044213114577e-02       1.259298561157e+04 
       7.326353692421e-02       1.201544374831e+04 
       7.610930652087e-02       1.142915348282e+04 
       7.899092055010e-02       1.084493445883e+04 
       8.191816548363e-02       1.027515336501e+04 
       8.489963139540e-02       9.732258299614e+03 
       8.794305014389e-02       9.227360915836e+03 
       9.105553142783e-02       8.768967288611e+03 
       9.424373124180e-02       8.361951345525e+03 
       9.751397424589e-02       8.006850610745e+03 
       1.008723438877e-01       7.699550937765e+03 
       1.043247494382e-01       7.431437178779e+03 
       1.078769761759e-01       7.190104176711e+03 
       1.115347230770e-01       6.960717989560e+03 
       1.153036311496e-01       6.728044956570e+03 
       1.191893047403e-01       6.478987768747e+03 
       1.231973276076e-01       6.205208162243e+03 
       1.273332751986e-01       5.905174040503e+03 
       1.316027243254e-01       5.584903255786e+03 
       1.360112612882e-01       5.256911681929e+03 
       1.405644893850e-01       4.937394633224e+03 
       1.452680366904e-01       4.642276160624e+03 
       1.501275649421e-01       4.383165770540e+03 
       1.551487803499e-01       4.164293372333e+03 
       1.603374471289e-01       3.981233698363e+03 
       1.656994045423e-01       3.821893887976e+03 
       1.712405882382e-01       3.669874224093e+03 
       1.769670566587e-01       3.509693326837e+03 
       1.828850233055e-01       3.332365800421e+03 
       1.890008956634e-01       3.138951879548e+03 
       1.953213216190e-01       2.939986582475e+03 
       2.018532442737e-01       2.750574413410e+03 
       2.086039661511e-01       2.583356677367e+03 
       2.155812239527e-01       2.442764326188e+03 
       2.227932752342e-01       2.323283497846e+03 
       2.302489986810e-01       2.212651231126e+03 
       2.379580100828e-01       2.098705365979e+03 
       2.459307966661e-01       1.976332921250e+03 
       2.541788731941e-01       1.850003221767e+03 
       2.627149642300e-01       1.729797830053e+03 
       2.715532182685e-01       1.623725767099e+03 
       2.807094611746e-01       1.532084743386e+03 
       2.902014986839e-01       1.448015863309e+03 
       3.000494808346e-01       1.363700906217e+03 
       3.102763454432e-01       1.276983972263e+03 
       3.209083635752e-01       1.192310245147e+03 
       3.319758181185e-01       1.115159441918e+03 
       3.435138581240e-01       1.046062209956e+03 
       3.555635882262e-01       9.807020825073e+02 
       3.681734768523e-01       9.155832165219e+02 
       3.814012033724e-01       8.519315530957e+02 
       3.953161199259e-01       7.927751726102e+02 
       4.100025903695e-01       7.379642079083e+02 
       4.255646075320e-01       6.849018649256e+02 
       4.421323182271e-01       6.331112353601e+02 
       4.598714729618e-01       5.840896795439e+02 
       4.789974985688e-01       5.374598383359e+02 
       4.997971383257e-01       4.919761669801e+02 
       5.226629891249e-01       4.480632171001e+02 
       5.481510689418e-01       4.054771591993e+02 
       5.770818017794e-01       3.635610480965e+02 
       6.107281663545e-01       3.221768525616e+02 
       6.511918066726e-01       2.806151191163e+02 
       7.022163816176e-01       2.381989028934e+02 
       7.710789448491e-01       1.939621979062e+02 
       8.729746092410e-01       1.471605013266e+02 
       1.037142588727e+00       9.966061103388e+01 
       1.289492853596e+00       6.030807099128e+01 
       1.622455450902e+00       3.512778330584e+01 
       2.042539321812e+00       2.023245295379e+01 
       2.571404632753e+00       1.154935871652e+01 
       3.237206636171e+00       6.539733201832e+00 
       4.075401697504e+00       3.676085797062e+00 
       5.130626760257e+00       2.052698536069e+00 
       6.459076406919e+00       1.139289759848e+00 
       8.131495425391e+00       6.288359529523e-01 
       1.023694622691e+01       3.453280281789e-01 
