# Matter power spectrum P(k) at redshift z=2.5
# for k=2.06162e-07 to 10.3439 h/Mpc,
# number of wavenumbers equal to 139
#    1:k (h/Mpc)              2:P (Mpc/h)^3        
       2.061622842898e-07       2.017988679877e-01 
       2.595429386460e-07       2.508006890821e-01 
       3.267452009132e-07       3.117013799947e-01 
       4.113478366114e-07       3.873902843764e-01 
       5.178562445967e-07       4.814583508087e-01 
       6.519423859790e-07       5.983684998818e-01 
       8.207468367347e-07       7.436673608772e-01 
       1.033259049415e-06       9.242484228682e-01 
       1.300796074275e-06       1.148679085404e+00 
       1.637605233467e-06       1.427607124593e+00 
       2.061622842898e-06       1.774265858100e+00 
       2.595429386460e-06       2.205101974067e+00 
       3.267452009132e-06       2.740555806613e+00 
       4.113478366114e-06       3.406031076011e+00 
       5.178562445967e-06       4.233100079544e+00 
       6.519423859790e-06       5.261001498347e+00 
       8.207468367347e-06       6.538501835734e+00 
       1.033259049415e-05       8.126208703243e+00 
       1.300796074275e-05       1.009944553185e+01 
       1.637605233467e-05       1.255182376585e+01 
       2.061622842898e-05       1.559968130526e+01 
       2.595429386460e-05       1.938759646927e+01 
       3.267452009132e-05       2.409523641425e+01 
       4.113478366114e-05       2.994585975638e+01 
       5.178562445967e-05       3.721686658606e+01 
       6.519423859790e-05       4.625287632166e+01 
       8.207468367347e-05       5.748191452948e+01 
       1.033259049415e-04       7.143539948998e+01 
       1.300796074275e-04       8.877272603648e+01 
       1.637605233467e-04       1.103113201043e+02 
       2.061622842898e-04       1.370630247996e+02 
       2.595429386460e-04       1.702774681470e+02 
       3.267452009132e-04       2.114924599792e+02 
       4.113478366114e-04       2.625901734196e+02 
       5.178562445967e-04       3.258555291750e+02 
       6.519423859790e-04       4.040296791804e+02 
       8.207468367347e-04       5.003474915225e+02 
       1.033259049415e-03       6.185453958937e+02 
       1.300796074275e-03       7.628242263948e+02 
       1.637605233467e-03       9.377343712586e+02 
       2.061622842898e-03       1.147887028607e+03 
       2.595429386460e-03       1.397379690864e+03 
       3.267452009132e-03       1.688922047548e+03 
       4.113478366114e-03       2.022592588375e+03 
       5.178562445967e-03       2.394015462027e+03 
       6.519423859790e-03       2.791985384031e+03 
       8.207468367347e-03       3.195564293688e+03 
       1.033259049415e-02       3.570801272122e+03 
       1.300796074275e-02       3.868142826961e+03 
       1.637605233449e-02       4.023537905966e+03 
       2.061622774435e-02       3.970173488649e+03 
       2.595393300729e-02       3.670912855223e+03 
       3.263749654973e-02       3.173329224227e+03 
       4.020084588801e-02       2.674789472961e+03 
       4.613023585592e-02       2.393733705409e+03 
       5.053314182920e-02       2.241970810502e+03 
       5.423730539511e-02       2.140596039914e+03 
       5.757992481752e-02       2.061216344598e+03 
       6.071696588197e-02       1.991009045524e+03 
       6.373332183506e-02       1.923123578858e+03 
       6.668092785799e-02       1.853682979004e+03 
       6.959442026260e-02       1.780648215361e+03 
       7.249850640959e-02       1.703309146897e+03 
       7.541180534006e-02       1.621995921307e+03 
       7.834901168665e-02       1.537856995773e+03 
       8.132219206427e-02       1.452640337431e+03 
       8.434160102565e-02       1.368457144062e+03 
       8.741621576046e-02       1.287531777426e+03 
       9.055409833616e-02       1.211952115479e+03 
       9.376264794479e-02       1.143441375188e+03 
       9.704878056378e-02       1.083168824018e+03 
       1.004190592648e-01       1.031612276392e+03 
       1.038797900718e-01       9.884787406724e+02 
       1.074370932062e-01       9.526895873946e+02 
       1.110969563971e-01       9.224425665167e+02 
       1.148652749116e-01       8.953696242424e+02 
       1.187478816468e-01       8.688118643803e+02 
       1.227505697575e-01       8.402130343612e+02 
       1.268791097156e-01       8.075901006782e+02 
       1.311392623151e-01       7.699828267810e+02 
       1.355367888815e-01       7.277414952003e+02 
       1.400774597741e-01       6.825228348509e+02 
       1.447670621668e-01       6.369388841167e+02 
       1.496114080192e-01       5.939263143927e+02 
       1.546163431103e-01       5.560077723153e+02 
       1.597877579779e-01       5.246499108534e+02 
       1.651316015935e-01       4.998764393765e+02 
       1.706538985843e-01       4.802257272108e+02 
       1.763607708148e-01       4.631000742015e+02 
       1.822584641302e-01       4.455105443241e+02 
       1.883533810720e-01       4.250894535905e+02 
       1.946521203916e-01       4.010190014616e+02 
       2.011615242217e-01       3.743920436575e+02 
       2.078887338266e-01       3.477107360040e+02 
       2.148412549531e-01       3.237079550449e+02 
       2.220270339562e-01       3.040817508529e+02 
       2.294545460910e-01       2.887520523323e+02 
       2.371328976710e-01       2.759646261257e+02 
       2.450719442141e-01       2.632371054715e+02 
       2.532824272599e-01       2.487658443180e+02 
       2.617761332958e-01       2.324898402086e+02 
       2.705660792233e-01       2.160033035870e+02 
       2.796667301097e-01       2.013013696525e+02 
       2.890942567159e-01       1.893072352572e+02 
       2.988668426136e-01       1.792848281994e+02 
       3.090050538360e-01       1.695553312705e+02 
       3.195322882530e-01       1.589727750897e+02 
       3.304753277123e-01       1.478739261445e+02 
       3.418650241393e-01       1.375385582165e+02 
       3.537371623281e-01       1.287301695403e+02 
       3.661335587440e-01       1.209302718854e+02 
       3.791034799358e-01       1.130977989976e+02 
       3.927055003398e-01       1.049970693767e+02 
       4.070099743405e-01       9.733097414716e+01 
       4.221023831793e-01       9.053230559674e+01 
       4.380879541212e-01       8.412886969217e+01 
       4.550981737594e-01       7.767280405278e+01 
       4.733001971651e-01       7.147574504139e+01 
       4.929108200362e-01       6.576172453411e+01 
       5.142178934117e-01       6.018232251616e+01 
       5.376143699589e-01       5.471716556252e+01 
       5.636547980210e-01       4.951127327299e+01 
       5.931538984377e-01       4.436022650575e+01 
       6.273690808593e-01       3.930588051994e+01 
       6.683626651064e-01       3.423715586663e+01 
       7.197791518963e-01       2.909332897744e+01 
       7.886424600067e-01       2.375159632175e+01 
       8.895597050114e-01       1.812047069611e+01 
       1.051327211841e+00       1.237519802417e+01 
       1.303297991098e+00       7.509295462062e+00 
       1.639411933365e+00       4.359033979850e+00 
       2.063878540821e+00       2.501041515554e+00 
       2.598269092983e+00       1.422403186872e+00 
       3.271026987819e+00       8.025485280995e-01 
       4.117978997629e+00       4.495617259907e-01 
       5.184228405350e+00       2.501847635288e-01 
       6.526556880041e+00       1.384000345962e-01 
       8.216448307803e+00       7.614405994917e-02 
       1.034389556939e+01       4.168254177876e-02 
