# Matter power spectrum P(k) at redshift z=2.5
# for k=1.71228e-07 to 10.8148 h/Mpc,
# number of wavenumbers equal to 140
#    1:k (h/Mpc)              2:P (Mpc/h)^3        
       1.712277291965e-07       3.386738188179e-01 
       2.155629394893e-07       4.227188595804e-01 
       2.713776623641e-07       5.276204544256e-01 
       3.416442353435e-07       6.585543500982e-01 
       4.301046096669e-07       8.219807022972e-01 
       5.414696228395e-07       1.025962813470e+00 
       6.816698679072e-07       1.280564968331e+00 
       8.581715191628e-07       1.598348994626e+00 
       1.080373933152e-06       1.994994050026e+00 
       1.360110198685e-06       2.490070212345e+00 
       1.712277291965e-06       3.108004039354e+00 
       2.155629394893e-06       3.879283732260e+00 
       2.713776623641e-06       4.841963360523e+00 
       3.416442353435e-06       6.043540338930e+00 
       4.301046096669e-06       7.543298758338e+00 
       5.414696228395e-06       9.415234124893e+00 
       6.816698679072e-06       1.175170365243e+01 
       8.581715191628e-06       1.466798195759e+01 
       1.080373933152e-05       1.830794637534e+01 
       1.360110198685e-05       2.285117131145e+01 
       1.712277291965e-05       2.852177956449e+01 
       2.155629394893e-05       3.559948306362e+01 
       2.713776623641e-05       4.443334948719e+01 
       3.416442353435e-05       5.545895743576e+01 
       4.301046096669e-05       6.921975417016e+01 
       5.414696228395e-05       8.639360520609e+01 
       6.816698679072e-05       1.078257195244e+02 
       8.581715191628e-05       1.345693256815e+02 
       1.080373933152e-04       1.679356186584e+02 
       1.360110198685e-04       2.095544923563e+02 
       1.712277291965e-04       2.614472223826e+02 
       2.155629394893e-04       3.261112016826e+02 
       2.713776623641e-04       4.066144402385e+02 
       3.416442353435e-04       5.066929288125e+02 
       4.301046096669e-04       6.308362718015e+02 
       5.414696228395e-04       7.843365548887e+02 
       6.816698679072e-04       9.732662040669e+02 
       8.581715191628e-04       1.204350682514e+03 
       1.080373933152e-03       1.484707019409e+03 
       1.360110198685e-03       1.821367779934e+03 
       1.712277291965e-03       2.220340223635e+03 
       2.155629394893e-03       2.684993635212e+03 
       2.713776623641e-03       3.214037913709e+03 
       3.416442353435e-03       3.799012641604e+03 
       4.301046096669e-03       4.421221542130e+03 
       5.414696228395e-03       5.048731258957e+03 
       6.816698679072e-03       5.633750446529e+03 
       8.581715191628e-03       6.111171919900e+03 
       1.080373933152e-02       6.399954944898e+03 
       1.360110198680e-02       6.411620282777e+03 
       1.712277265615e-02       6.074466058002e+03 
       2.155612450671e-02       5.382991210673e+03 
       2.711732372575e-02       4.463485469959e+03 
       3.356417941074e-02       3.623545609469e+03 
       3.881557865572e-02       3.164948057033e+03 
       4.266122437710e-02       2.926822421110e+03 
       4.586207218475e-02       2.767201504029e+03 
       4.873405132420e-02       2.639133079365e+03 
       5.142034297072e-02       2.523317580173e+03 
       5.399770097013e-02       2.410534896779e+03 
       5.651256853343e-02       2.296374468324e+03 
       5.899566267744e-02       2.179228822277e+03 
       6.146875002245e-02       2.059333320207e+03 
       6.394814344982e-02       1.938175026740e+03 
       6.644665731722e-02       1.818035113811e+03 
       6.897477177324e-02       1.701581073694e+03 
       7.154136200656e-02       1.591494112736e+03 
       7.415417420867e-02       1.490138613785e+03 
       7.682014695320e-02       1.399291739001e+03 
       7.954563437547e-02       1.319947031209e+03 
       8.233656477542e-02       1.252197175391e+03 
       8.519855544882e-02       1.195197065909e+03 
       8.813699704548e-02       1.147210600153e+03 
       9.115711620869e-02       1.105749308866e+03 
       9.426402241883e-02       1.067821670510e+03 
       9.746274315975e-02       1.030303294350e+03 
       1.007582503531e-01       9.904112711074e+02 
       1.041554802342e-01       9.462125538355e+02 
       1.076593483283e-01       8.970450108419e+02 
       1.112747608470e-01       8.437049240286e+02 
       1.150066235934e-01       7.882954383471e+02 
       1.188598493198e-01       7.337294308501e+02 
       1.228393643814e-01       6.830056745588e+02 
       1.269501154705e-01       6.384587718875e+02 
       1.311970771753e-01       6.011847018851e+02 
       1.355852610849e-01       5.707782783859e+02 
       1.401197271469e-01       5.454432044786e+02 
       1.448055979708e-01       5.224831180919e+02 
       1.496480767690e-01       4.991122633081e+02 
       1.546524696188e-01       4.733888271277e+02 
       1.598242127347e-01       4.449136834544e+02 
       1.651689054524e-01       4.149236847280e+02 
       1.706923496514e-01       3.856618233181e+02 
       1.764005963952e-01       3.593070445303e+02 
       1.823000006468e-01       3.369935614497e+02 
       1.883972850426e-01       3.183765515424e+02 
       1.946996138870e-01       3.019193366695e+02 
       2.012146787822e-01       2.857658764587e+02 
       2.079507976548e-01       2.687664083773e+02 
       2.149170294063e-01       2.510499874127e+02 
       2.221233070350e-01       2.337466661777e+02 
       2.295805928993e-01       2.180651468813e+02 
       2.373010608775e-01       2.044244306293e+02 
       2.452983116187e-01       1.922619458601e+02 
       2.535876289995e-01       1.806016660834e+02 
       2.621862884751e-01       1.688819414226e+02 
       2.711139315163e-01       1.573200447783e+02 
       2.803930251271e-01       1.465137081088e+02 
       2.900494321312e-01       1.367470323071e+02 
       3.001131273686e-01       1.277437877752e+02 
       3.106191085130e-01       1.190681427994e+02 
       3.216085700353e-01       1.106264039578e+02 
       3.331304383161e-01       1.026456013973e+02 
       3.452434106674e-01       9.524363483328e+01 
       3.580187105182e-01       8.826002391144e+01 
       3.715438816014e-01       8.154340480471e+01 
       3.859281248386e-01       7.514239573412e+01 
       4.013099865801e-01       6.909918962696e+01 
       4.178687389962e-01       6.332473620958e+01 
       4.358417586052e-01       5.777358922018e+01 
       4.555520380349e-01       5.245313731406e+01 
       4.774536096338e-01       4.730944531434e+01 
       5.022103401892e-01       4.230413142812e+01 
       5.308408117632e-01       3.739422204724e+01 
       5.650035468458e-01       3.251778500184e+01 
       6.076037347416e-01       2.759880692863e+01 
       6.641864080245e-01       2.253819844626e+01 
       7.462172457437e-01       1.724519170139e+01 
       8.767879028298e-01       1.184836627354e+01 
       1.082814174500e+00       7.193421421586e+00 
       1.361521774795e+00       4.147780119359e+00 
       1.714026851495e+00       2.364418253806e+00 
       2.157831872540e+00       1.337325782517e+00 
       2.716549378682e+00       7.510860507312e-01 
       3.419933045217e+00       4.191387572810e-01 
       4.305440617258e+00       2.325342283050e-01 
       5.420228602036e+00       1.283195411698e-01 
       6.823663524837e+00       7.046381591797e-02 
       8.590483412951e+00       3.851897690248e-02 
       1.081477786816e+01       2.096838092963e-02 
