# Matter power spectrum P(k) at redshift z=2.5
# for k=2.40638e-07 to 12.0756 h/Mpc,
# number of wavenumbers equal to 139
#    1:k (h/Mpc)              2:P (Mpc/h)^3        
       2.406381888657e-07       5.905361023976e-02 
       3.029455310111e-07       7.382041001812e-02 
       3.813858273794e-07       9.227975916552e-02 
       4.801363097860e-07       1.153550075020e-01 
       6.044558015147e-07       1.442003952321e-01 
       7.609647688333e-07       1.802587889869e-01 
       9.579978849643e-07       2.253338549426e-01 
       1.206047881827e-06       2.816802792129e-01 
       1.518324326272e-06       3.521165484363e-01 
       1.911457077689e-06       4.401659320697e-01 
       2.406381888657e-06       5.502327170394e-01 
       3.029455310111e-06       6.878225104671e-01 
       3.813858273794e-06       8.598176283549e-01 
       4.801363097860e-06       1.074821342999e+00 
       6.044558015147e-06       1.343588201472e+00 
       7.609647688333e-06       1.679561932212e+00 
       9.579978849643e-06       2.099547820687e+00 
       1.206047881827e-05       2.624553148846e+00 
       1.518324326272e-05       3.280837646258e+00 
       1.911457077689e-05       4.101226335973e+00 
       2.406381888657e-05       5.126750109611e+00 
       3.029455310111e-05       6.408695430226e+00 
       3.813858273794e-05       8.011164391988e+00 
       4.801363097860e-05       1.001427060807e+01 
       6.044558015147e-05       1.251812565575e+01 
       7.609647688333e-05       1.564780542389e+01 
       9.579978849643e-05       1.955952473762e+01 
       1.206047881827e-04       2.444828986350e+01 
       1.518324326272e-04       3.055733431746e+01 
       1.911457077689e-04       3.818965886790e+01 
       2.406381888657e-04       4.772195980746e+01 
       3.029455310111e-04       5.962108053885e+01 
       3.813858273794e-04       7.446275483690e+01 
       4.801363097860e-04       9.295166222637e+01 
       6.044558015147e-04       1.159404934967e+02 
       7.609647688333e-04       1.444437638915e+02 
       9.579978849643e-04       1.796399910102e+02 
       1.206047881827e-03       2.228550062543e+02 
       1.518324326272e-03       2.755203685042e+02 
       1.911457077689e-03       3.390966508262e+02 
       2.406381888657e-03       4.149241622453e+02 
       3.029455310111e-03       5.039443988451e+02 
       3.813858273794e-03       6.063167605554e+02 
       4.801363097860e-03       7.209557021189e+02 
       6.044558015147e-03       8.449548494467e+02 
       7.609647688333e-03       9.729913499050e+02 
       9.579978849643e-03       1.096829045478e+03 
       1.206047881827e-02       1.205010290506e+03 
       1.518324326272e-02       1.283012975030e+03 
       1.911457077689e-02       1.314384248169e+03 
       2.406381885190e-02       1.283996178869e+03 
       3.029451241806e-02       1.185050279521e+03 
       3.813056945773e-02       1.029718250360e+03 
       4.765024096003e-02       8.596820400542e+02 
       5.647012085223e-02       7.430704407579e+02 
       6.278114992157e-02       6.807864745306e+02 
       6.785143687667e-02       6.390985030649e+02 
       7.231650977356e-02       6.058822238413e+02 
       7.644814953816e-02       5.765132405647e+02 
       8.038530951249e-02       5.488908510873e+02 
       8.420927445655e-02       5.220183664217e+02 
       8.797246092777e-02       4.954868631529e+02 
       9.171127667543e-02       4.692406730145e+02 
       9.545256152095e-02       4.434452193488e+02 
       9.921710687701e-02       4.183958217701e+02 
       1.030217137325e-01       3.944449930135e+02 
       1.068804627934e-01       3.719410523143e+02 
       1.108055335249e-01       3.511763462945e+02 
       1.148077516961e-01       3.323462734027e+02 
       1.188969664991e-01       3.155204319490e+02 
       1.230823167475e-01       3.006273496245e+02 
       1.273724225722e-01       2.874539274863e+02 
       1.317755256639e-01       2.756609808905e+02 
       1.362995931005e-01       2.648163571986e+02 
       1.409523948494e-01       2.544456645398e+02 
       1.457415618966e-01       2.440980170358e+02 
       1.506746299342e-01       2.334186528317e+02 
       1.557590722044e-01       2.222143991658e+02 
       1.610023242200e-01       2.104942865421e+02 
       1.664118024915e-01       1.984692291969e+02 
       1.719949190037e-01       1.865042474448e+02 
       1.777590929248e-01       1.750303628853e+02 
       1.837117608634e-01       1.644373136181e+02 
       1.898603868825e-01       1.549750641844e+02 
       1.962124734123e-01       1.466902732388e+02 
       2.027755741591e-01       1.394152858268e+02 
       2.095573100851e-01       1.328161191740e+02 
       2.165653895124e-01       1.264924451073e+02 
       2.238076333965e-01       1.201053078181e+02 
       2.312920068044e-01       1.134899688429e+02 
       2.390266576362e-01       1.067054120925e+02 
       2.470199636411e-01       9.999189835573e+01 
       2.552805888124e-01       9.365124849882e+01 
       2.638175503078e-01       8.790544613524e+01 
       2.726402971493e-01       8.280104715403e+01 
       2.817588021196e-01       7.820327617980e+01 
       2.911836685163e-01       7.388021451275e+01 
       3.009262537678e-01       6.963222020891e+01 
       3.109988123911e-01       6.539339597500e+01 
       3.214146614133e-01       6.124334244871e+01 
       3.321883722364e-01       5.732514859659e+01 
       3.433359940632e-01       5.373235450831e+01 
       3.548753155047e-01       5.044756733473e+01 
       3.668261729795e-01       4.737168712776e+01 
       3.792108171621e-01       4.441086570361e+01 
       3.920543522858e-01       4.154380035164e+01 
       4.053852678994e-01       3.881386196879e+01 
       4.192360892441e-01       3.626439923676e+01 
       4.336441815192e-01       3.388905054564e+01 
       4.486527560957e-01       3.164456772507e+01 
       4.643121450156e-01       2.950010701564e+01 
       4.806814366445e-01       2.745948373583e+01 
       4.978306045868e-01       2.553561494214e+01 
       5.158433211581e-01       2.372136910579e+01 
       5.348207379424e-01       2.199739380071e+01 
       5.548866599827e-01       2.035528910893e+01 
       5.761947736122e-01       1.879569515462e+01 
       5.989389776787e-01       1.731227803127e+01 
       6.233685404367e-01       1.589447604713e+01 
       6.498110088344e-01       1.453663077432e+01 
       6.787080469056e-01       1.323245383911e+01 
       7.106737891701e-01       1.197268148696e+01 
       7.465944188970e-01       1.074868399801e+01 
       7.878077591259e-01       9.549616389730e+00 
       8.364489490611e-01       8.362140952121e+00 
       8.961675985008e-01       7.169016712726e+00 
       9.737381271113e-01       5.947439290601e+00 
       1.082871013334e+00       4.671719208247e+00 
       1.252140274018e+00       3.344552383840e+00 
       1.525605160866e+00       2.108162301938e+00 
       1.913990845378e+00       1.229778453734e+00 
       2.409393972134e+00       7.052268394254e-01 
       3.033246320755e+00       4.010460140817e-01 
       3.818630872605e+00       2.263774337420e-01 
       4.807371443784e+00       1.269244163132e-01 
       6.052122074513e+00       7.072826812843e-02 
       7.619170274885e+00       3.919301069376e-02 
       9.591967075840e+00       2.160711709790e-02 
       1.207557110087e+01       1.185599911121e-02 
