# Matter power spectrum P(k) at redshift z=0.5
# for k=2.09e-07 to 10.4895 h/Mpc,
# number of wavenumbers equal to 139
#    1:k (h/Mpc)              2:P (Mpc/h)^3        
       2.090002883584e-07       3.394810273418e-01 
       2.631157740867e-07       4.263099877374e-01 
       3.312431342416e-07       5.353471651206e-01 
       4.170103991791e-07       6.722727483822e-01 
       5.249849885090e-07       8.442197463580e-01 
       6.609169428444e-07       1.060145575117e+00 
       8.320451344322e-07       1.331298685721e+00 
       1.047482763496e-06       1.671804540848e+00 
       1.318702669382e-06       2.099401465871e+00 
       1.660148301086e-06       2.636364707336e+00 
       2.090002883584e-06       3.310666834456e+00 
       2.631157740867e-06       4.157434931524e+00 
       3.312431342416e-06       5.220780485744e+00 
       4.170103991791e-06       6.556097285165e+00 
       5.249849885090e-06       8.232947008097e+00 
       6.609169428444e-06       1.033868278020e+01 
       8.320451344322e-06       1.298299936974e+01 
       1.047482763496e-05       1.630364686436e+01 
       1.318702669382e-05       2.047360511351e+01 
       1.660148301086e-05       2.571009191377e+01 
       2.090002883584e-05       3.228587273597e+01 
       2.631157740867e-05       4.054345817902e+01 
       3.312431342416e-05       5.091292285886e+01 
       4.170103991791e-05       6.393426225172e+01 
       5.249849885090e-05       8.028542884023e+01 
       6.609169428444e-05       1.008174618987e+02 
       8.320451344322e-05       1.265984494877e+02 
       1.047482763496e-04       1.589684325203e+02 
       1.318702669382e-04       1.996077572912e+02 
       1.660148301086e-04       2.506217490936e+02 
       2.090002883584e-04       3.146447970684e+02 
       2.631157740867e-04       3.949667898582e+02 
       3.312431342416e-04       4.956839737691e+02 
       4.170103991791e-04       6.218742884956e+02 
       5.249849885090e-04       7.797938063295e+02 
       6.609169428444e-04       9.770863265691e+02 
       8.320451344322e-04       1.222992277222e+03 
       1.047482763496e-03       1.528528821968e+03 
       1.318702669382e-03       1.906569427064e+03 
       1.660148301086e-03       2.371683093036e+03 
       2.090002883584e-03       2.939584858993e+03 
       2.631157740867e-03       3.625992886186e+03 
       3.312431342416e-03       4.444614459166e+03 
       4.170103991791e-03       5.403923504917e+03 
       5.249849885090e-03       6.502240773708e+03 
       6.609169428444e-03       7.720857692560e+03 
       8.320451344322e-03       9.015062415503e+03 
       1.047482763496e-02       1.030343678283e+04 
       1.318702669382e-02       1.145813241521e+04 
       1.660148300853e-02       1.230413125789e+04 
       2.090002397638e-02       1.264578415888e+04 
       2.631004181833e-02       1.234716257472e+04 
       3.302073882314e-02       1.147845273486e+04 
       3.997857390469e-02       1.052324992773e+04 
       4.505624412868e-02       9.929219358514e+03 
       4.898458424494e-02       9.532616604991e+03 
       5.237407051508e-02       9.219882516960e+03 
       5.547489633474e-02       8.944674785479e+03 
       5.840905198133e-02       8.684189174837e+03 
       6.124552709337e-02       8.425898606783e+03 
       6.402771549916e-02       8.162912976525e+03 
       6.678517941768e-02       7.892047414254e+03 
       6.953937086079e-02       7.612857649014e+03 
       7.230668837612e-02       7.327028519415e+03 
       7.510023307759e-02       7.037865266585e+03 
       7.793087712666e-02       6.749785358085e+03 
       8.080794478108e-02       6.467776734224e+03 
       8.373966334869e-02       6.196828099727e+03 
       8.673347132937e-02       5.941359230771e+03 
       8.979623451407e-02       5.704692080926e+03 
       9.293440078721e-02       5.488609055490e+03 
       9.615411291615e-02       5.293045389182e+03 
       9.946129180385e-02       5.115965174442e+03 
       1.028616985096e-01       4.953468941637e+03 
       1.063609807186e-01       4.800175583320e+03 
       1.099647076542e-01       4.649898349032e+03 
       1.136783963243e-01       4.496583869161e+03 
       1.175075312633e-01       4.335401543195e+03 
       1.214575794463e-01       4.163777071747e+03 
       1.255340017287e-01       3.982096724356e+03 
       1.297422619505e-01       3.793818567522e+03 
       1.340878347046e-01       3.604843676324e+03 
       1.385762126783e-01       3.422205482061e+03 
       1.432129144212e-01       3.252358341057e+03 
       1.480034933562e-01       3.099497383750e+03 
       1.529535488280e-01       2.964372161712e+03 
       1.580687399716e-01       2.843972927318e+03 
       1.633548031697e-01       2.732303307525e+03 
       1.688175738645e-01       2.622194314958e+03 
       1.744630134882e-01       2.507735891283e+03 
       1.802972422821e-01       2.386486838574e+03 
       1.863265787940e-01       2.260451309477e+03 
       1.925575868840e-01       2.135180681705e+03 
       1.989971311352e-01       2.017240066904e+03 
       2.056524416746e-01       1.911172690008e+03 
       2.125311895690e-01       1.817426646176e+03 
       2.196415741938e-01       1.732303619405e+03 
       2.269924242882e-01       1.650066862183e+03 
       2.345933148493e-01       1.566209352405e+03 
       2.424547025987e-01       1.479997067323e+03 
       2.505880835273e-01       1.394556808856e+03 
       2.590061770506e-01       1.314347077525e+03 
       2.677231426566e-01       1.241826317347e+03 
       2.767548367261e-01       1.175810384859e+03 
       2.861191196088e-01       1.112752578269e+03 
       2.958362262751e-01       1.049867350779e+03 
       3.059292182836e-01       9.873470577624e+02 
       3.164245409043e-01       9.276034361174e+02 
       3.273527177795e-01       8.724024188440e+02 
       3.387492276483e-01       8.210168730953e+02 
       3.506556252076e-01       7.713681762013e+02 
       3.631209939937e-01       7.226010768143e+02 
       3.762038578754e-01       6.757369543195e+02 
       3.899747370328e-01       6.316955787006e+02 
       4.045196272279e-01       5.898169547638e+02 
       4.199448306356e-01       5.491015786176e+02 
       4.363838138647e-01       5.097404188395e+02 
       4.540071914474e-01       4.721534106579e+02 
       4.730376817101e-01       4.358318332708e+02 
       4.937732629614e-01       4.004148922154e+02 
       5.166244259300e-01       3.660250632721e+02 
       5.421768504752e-01       3.322907823474e+02 
       5.713025723102e-01       2.989392403172e+02 
       6.053698061641e-01       2.656403246211e+02 
       6.466686844331e-01       2.318824005437e+02 
       6.993463923664e-01       1.969848768862e+02 
       7.716029533159e-01       1.600804315258e+02 
       8.806367900964e-01       1.205909253509e+02 
       1.057390334797e+00       8.084504545153e+01 
       1.320891793491e+00       4.915006638865e+01 
       1.662475815217e+00       2.904230592907e+01 
       2.092929272888e+00       1.696825961301e+01 
       2.634841841085e+00       9.818959786371e+00 
       3.317069349799e+00       5.632882952788e+00 
       4.175942897146e+00       3.206241033618e+00 
       5.257200631419e+00       1.812093062466e+00 
       6.618423469793e+00       1.017569077552e+00 
       8.332101492138e+00       5.680580793467e-01 
       1.048949430210e+01       3.154158835623e-01 
