# Matter power spectrum P(k) at redshift z=1
# for k=2.32979e-07 to 11.6885 h/Mpc,
# number of wavenumbers equal to 139
#    1:k (h/Mpc)              2:P (Mpc/h)^3        
       2.329794069244e-07       2.366003460474e-01 
       2.933036958019e-07       2.949071996518e-01 
       3.692474760181e-07       3.675829635266e-01 
       4.648550308000e-07       4.581686550532e-01 
       5.852178110745e-07       5.710779256430e-01 
       7.367455737963e-07       7.118121092874e-01 
       9.275077248790e-07       8.872282664099e-01 
       1.167663044486e-06       1.105873283213e+00 
       1.470000679116e-06       1.378400304508e+00 
       1.850621210294e-06       1.718087789834e+00 
       2.329794069244e-06       2.141486481295e+00 
       2.933036958019e-06       2.669225803577e+00 
       3.692474760181e-06       3.327018982503e+00 
       4.648550308000e-06       4.146915844248e+00 
       5.852178110745e-06       5.168864318671e+00 
       7.367455737963e-06       6.442656690918e+00 
       9.275077248790e-06       8.030355357967e+00 
       1.167663044486e-05       1.000931613628e+01 
       1.470000679116e-05       1.247595614113e+01 
       1.850621210294e-05       1.555044926911e+01 
       2.329794069244e-05       1.938257694602e+01 
       2.933036958019e-05       2.415901703014e+01 
       3.692474760181e-05       3.011242169271e+01 
       4.648550308000e-05       3.753271807412e+01 
       5.852178110745e-05       4.678116551836e+01 
       7.367455737963e-05       5.830782128621e+01 
       9.275077248790e-05       7.267320070645e+01 
       1.167663044486e-04       9.057505984053e+01 
       1.470000679116e-04       1.128813571686e+02 
       1.850621210294e-04       1.406705193274e+02 
       2.329794069244e-04       1.752800522777e+02 
       2.933036958019e-04       2.183641375029e+02 
       3.692474760181e-04       2.719598673893e+02 
       4.648550308000e-04       3.385598668333e+02 
       5.852178110745e-04       4.211860034150e+02 
       7.367455737963e-04       5.234550928311e+02 
       9.275077248790e-04       6.496241847967e+02 
       1.167663044486e-03       8.045992211362e+02 
       1.470000679116e-03       9.938734262756e+02 
       1.850621210294e-03       1.223310941559e+03 
       2.329794069244e-03       1.498662358597e+03 
       2.933036958019e-03       1.824766019095e+03 
       3.692474760181e-03       2.204335326601e+03 
       4.648550308000e-03       2.636274100887e+03 
       5.852178110745e-03       3.113400656222e+03 
       7.367455737963e-03       3.619648583229e+03 
       9.275077248790e-03       4.127018298385e+03 
       1.167663044486e-02       4.592508269788e+03 
       1.470000679116e-02       4.956307852686e+03 
       1.850621210290e-02       5.144237853863e+03 
       2.329794046025e-02       5.081241574704e+03 
       2.933020265328e-02       4.725853300073e+03 
       3.690269384494e-02       4.127102033479e+03 
       4.578183327775e-02       3.490549698502e+03 
       5.318304567604e-02       3.100787598498e+03 
       5.856642354581e-02       2.890493122947e+03 
       6.301936293911e-02       2.748066866305e+03 
       6.700162465243e-02       2.634279120085e+03 
       7.071924061426e-02       2.532541840273e+03 
       7.428170589425e-02       2.434561182173e+03 
       7.775486604058e-02       2.335998488844e+03 
       8.118206749238e-02       2.234838894069e+03 
       8.459391241862e-02       2.130642519817e+03 
       8.801326509332e-02       2.024110230372e+03 
       9.145803939775e-02       1.916758140029e+03 
       9.494285315269e-02       1.810622230354e+03 
       9.848006144959e-02       1.707969196652e+03 
       1.020804295663e-01       1.611015663510e+03 
       1.057535864898e-01       1.521669710439e+03 
       1.095083393790e-01       1.441311487545e+03 
       1.133528967588e-01       1.370627323878e+03 
       1.172950299550e-01       1.309507704484e+03 
       1.213421915986e-01       1.257017451395e+03 
       1.255016035732e-01       1.211448775454e+03 
       1.297803227623e-01       1.170471968532e+03 
       1.341852904006e-01       1.131397694447e+03 
       1.387233691692e-01       1.091550207543e+03 
       1.434013710864e-01       1.048717014638e+03 
       1.482260785191e-01       1.001593753475e+03 
       1.532042601539e-01       9.501043810885e+02 
       1.583426834506e-01       8.954738497589e+02 
       1.636481248863e-01       8.399835783217e+02 
       1.691273791611e-01       7.864373724445e+02 
       1.747872684527e-01       7.374682420766e+02 
       1.806346527472e-01       6.948722969064e+02 
       1.866764422448e-01       6.591445792022e+02 
       1.929196128143e-01       6.293355672027e+02 
       1.993712254554e-01       6.032873402079e+02 
       2.060384507216e-01       5.782470827155e+02 
       2.129285990475e-01       5.517500933862e+02 
       2.200491579312e-01       5.225013727257e+02 
       2.274078369373e-01       4.908653659017e+02 
       2.350126215202e-01       4.586621233935e+02 
       2.428718367377e-01       4.283016612972e+02 
       2.509942220295e-01       4.016620355163e+02 
       2.593890184050e-01       3.792557900455e+02 
       2.680660696259e-01       3.600710574817e+02 
       2.770359393114e-01       3.421663549624e+02 
       2.863100463627e-01       3.237569692805e+02 
       2.959008217356e-01       3.042108716610e+02 
       3.058218904314e-01       2.843038588186e+02 
       3.160882836902e-01       2.655257968053e+02 
       3.267166878466e-01       2.489462886707e+02 
       3.377257382576e-01       2.344876823620e+02 
       3.491363693134e-01       2.211208488206e+02 
       3.609722350360e-01       2.077913869071e+02 
       3.732602195067e-01       1.942819139151e+02 
       3.860310628664e-01       1.812280880740e+02 
       3.993201376819e-01       1.693168808039e+02 
       4.131684232375e-01       1.585494246749e+02 
       4.276237436226e-01       1.483469384923e+02 
       4.427423621944e-01       1.382963226277e+02 
       4.585910646816e-01       1.285705413099e+02 
       4.752499233783e-01       1.195143565835e+02 
       4.928160281912e-01       1.110775488539e+02 
       5.114086185591e-01       1.029553327228e+02 
       5.311762923245e-01       9.509900306808e+01 
       5.523073750010e-01       8.765973790315e+01 
       5.750452421710e-01       8.058193149565e+01 
       5.997116711045e-01       7.372876390367e+01 
       6.267437229743e-01       6.712906943719e+01 
       6.567544728336e-01       6.074766356209e+01 
       6.906380199437e-01       5.450447223829e+01 
       7.297618461517e-01       4.836800017585e+01 
       7.763438553265e-01       4.224991446005e+01 
       8.342505669887e-01       3.605793527925e+01 
       9.108225690743e-01       2.966061674512e+01 
       1.021183852842e+00       2.293122842231e+01 
       1.196081739009e+00       1.598657039079e+01 
       1.473746556008e+00       9.844574717272e+00 
       1.852546482171e+00       5.729444145339e+00 
       2.332167155924e+00       3.291195559639e+00 
       2.936024318015e+00       1.874202713278e+00 
       3.696235623506e+00       1.058969529258e+00 
       4.653284954410e+00       5.941171797487e-01 
       5.858138677427e+00       3.311781598760e-01 
       7.374959646827e+00       1.835261956399e-01 
       9.284524110347e+00       1.011574526910e-01 
       1.168852333893e+01       5.548190621090e-02 
