# Matter power spectrum P(k) at redshift z=2
# for k=2.12519e-07 to 10.6631 h/Mpc,
# number of wavenumbers equal to 139
#    1:k (h/Mpc)              2:P (Mpc/h)^3        
       2.125194555907e-07       2.375640462227e-01 
       2.675461431437e-07       2.947207497674e-01 
       3.368206384312e-07       3.656290658759e-01 
       4.240320609378e-07       4.535975628423e-01 
       5.338247369300e-07       5.627308331790e-01 
       6.720455267655e-07       6.981210134866e-01 
       8.460551915277e-07       8.660853821325e-01 
       1.065120380395e-06       1.074461121713e+00 
       1.340907113499e-06       1.332970999262e+00 
       1.688102040039e-06       1.653677027309e+00 
       2.125194555907e-06       2.051543270345e+00 
       2.675461431437e-06       2.545134057612e+00 
       3.368206384312e-06       3.157480175987e+00 
       4.240320609378e-06       3.917153452699e+00 
       5.338247369300e-06       4.859599850678e+00 
       6.720455267655e-06       6.028793257032e+00 
       8.460551915277e-06       7.479287066875e+00 
       1.065120380395e-05       9.278759185636e+00 
       1.340907113499e-05       1.151116899427e+01 
       1.688102040039e-05       1.428067313882e+01 
       2.125194555907e-05       1.771648207270e+01 
       2.675461431437e-05       2.197888230365e+01 
       3.368206384312e-05       2.726670220434e+01 
       4.240320609378e-05       3.382656350228e+01 
       5.338247369300e-05       4.196433792212e+01 
       6.720455267655e-05       5.205931951656e+01 
       8.460551915277e-05       6.458172714840e+01 
       1.065120380395e-04       8.011426186749e+01 
       1.340907113499e-04       9.937854647434e+01 
       1.688102040039e-04       1.232673346892e+02 
       2.125194555907e-04       1.528833282521e+02 
       2.675461431437e-04       1.895851550290e+02 
       3.368206384312e-04       2.350403245753e+02 
       4.240320609378e-04       2.912834741597e+02 
       5.338247369300e-04       3.607756185993e+02 
       6.720455267655e-04       4.464564298678e+02 
       8.460551915277e-04       5.517777997580e+02 
       1.065120380395e-03       6.807048556706e+02 
       1.340907113499e-03       8.376668581333e+02 
       1.688102040039e-03       1.027413467548e+03 
       2.125194555907e-03       1.254668130194e+03 
       2.675461431437e-03       1.523478930617e+03 
       3.368206384312e-03       1.836283148992e+03 
       4.240320609378e-03       2.192563728543e+03 
       5.338247369300e-03       2.586968895653e+03 
       6.720455267655e-03       3.006942375121e+03 
       8.460551915277e-03       3.429974939771e+03 
       1.065120380395e-02       3.820704471513e+03 
       1.340907113499e-02       4.128980566976e+03 
       1.688102040016e-02       4.291760278863e+03 
       2.125194472728e-02       4.245175558823e+03 
       2.675419422978e-02       3.955539443334e+03 
       3.364043967129e-02       3.470147535566e+03 
       4.138760660502e-02       2.979331150649e+03 
       4.741497300609e-02       2.694429580428e+03 
       5.190505525144e-02       2.531817309129e+03 
       5.569102430843e-02       2.417175650121e+03 
       5.911156208046e-02       2.323573371288e+03 
       6.232401240346e-02       2.238923677653e+03 
       6.541429771069e-02       2.156916289041e+03 
       6.843510626508e-02       2.074131650267e+03 
       7.142163939351e-02       1.988917550911e+03 
       7.439904339451e-02       1.900862885781e+03 
       7.738629059843e-02       1.810486093887e+03 
       8.039836962149e-02       1.718995073289e+03 
       8.344759924185e-02       1.628061378611e+03 
       8.654445623177e-02       1.539590991467e+03 
       8.969811830918e-02       1.455493533845e+03 
       9.291683223295e-02       1.377462376377e+03 
       9.620817027751e-02       1.306780289102e+03 
       9.957921299295e-02       1.244164882011e+03 
       1.030366818124e-01       1.189665263134e+03 
       1.065870366286e-01       1.142618649193e+03 
       1.102365483319e-01       1.101677744530e+03 
       1.139913530928e-01       1.064922864387e+03 
       1.178574931259e-01       1.030071789687e+03 
       1.218409473327e-01       9.947899884795e+02 
       1.259476543438e-01       9.570767516451e+02 
       1.301835298942e-01       9.156630775728e+02 
       1.345544800739e-01       8.703196215550e+02 
       1.390664117403e-01       8.219648220449e+02 
       1.437252412078e-01       7.724992329802e+02 
       1.485369022173e-01       7.243732420194e+02 
       1.535073541252e-01       6.799869516272e+02 
       1.586425912008e-01       6.410815865353e+02 
       1.639486538997e-01       6.082833703170e+02 
       1.694316429592e-01       5.809188212102e+02 
       1.750977371526e-01       5.571683978940e+02 
       1.809532155312e-01       5.345719158140e+02 
       1.870044849782e-01       5.108092621548e+02 
       1.932581139063e-01       4.845310234790e+02 
       1.997208729442e-01       4.558852262380e+02 
       2.063997834959e-01       4.264296016397e+02 
       2.133021751197e-01       3.984006181771e+02 
       2.204357527761e-01       3.736703797709e+02 
       2.278086751534e-01       3.528987266821e+02 
       2.354296455036e-01       3.352801355959e+02 
       2.433080167419e-01       3.190147242263e+02 
       2.514539129940e-01       3.023123220327e+02 
       2.598783703610e-01       2.844095174819e+02 
       2.685935004454e-01       2.659421248642e+02 
       2.776126812100e-01       2.483698617456e+02 
       2.869507810970e-01       2.328602263060e+02 
       2.966244241352e-01       2.194684739115e+02 
       3.066523061632e-01       2.072127418445e+02 
       3.170555755262e-01       1.949627418927e+02 
       3.278582959934e-01       1.823928094579e+02 
       3.390880156876e-01       1.701249650933e+02 
       3.507764742396e-01       1.589411922453e+02 
       3.629604923171e-01       1.489285598098e+02 
       3.756831048301e-01       1.394822641382e+02 
       3.889950242389e-01       1.300999387209e+02 
       4.029565578527e-01       1.209394760165e+02 
       4.176401600561e-01       1.124234120067e+02 
       4.331338892501e-01       1.045408166647e+02 
       4.495461811774e-01       9.693208107803e+01 
       4.670125832389e-01       8.951929134321e+01 
       4.857054888852e-01       8.250495487525e+01 
       5.058486028637e-01       7.584484800313e+01 
       5.277391296137e-01       6.936489490058e+01 
       5.517830827555e-01       6.311562788217e+01 
       5.785539397768e-01       5.706884138050e+01 
       6.088951219090e-01       5.113084367261e+01 
       6.441100274040e-01       4.528281670095e+01 
       6.863398393139e-01       3.942779441843e+01 
       7.393757881122e-01       3.347463926318e+01 
       8.105400110262e-01       2.729168009041e+01 
       9.150764892512e-01       2.077254587803e+01 
       1.082873302291e+00       1.413690261274e+01 
       1.343424115919e+00       8.555485359528e+00 
       1.690004398537e+00       4.960098205022e+00 
       2.127572397139e+00       2.842484470531e+00 
       2.678454913651e+00       1.614515177313e+00 
       3.371974955126e+00       9.097113018181e-01 
       4.245064958942e+00       5.088736455996e-01 
       5.344220151529e+00       2.827806036115e-01 
       6.727974554983e+00       1.561983355387e-01 
       8.470018137172e+00       8.580529240611e-02 
       1.066312107124e+01       4.689855382321e-02 
