# Matter power spectrum P(k) at redshift z=0.5
# for k=2.32097e-07 to 11.6489 h/Mpc,
# number of wavenumbers equal to 139
#    1:k (h/Mpc)              2:P (Mpc/h)^3        
       2.320973385932e-07       4.243362875436e-01 
       2.921932375647e-07       5.309580043818e-01 
       3.678494919247e-07       6.643702426923e-01 
       4.630950730995e-07       8.313045770613e-01 
       5.830021556017e-07       1.040184004440e+00 
       7.339562288177e-07       1.301547943004e+00 
       9.239961476032e-07       1.628584018347e+00 
       1.163242230618e-06       2.037793470346e+00 
       1.464435204197e-06       2.549823753458e+00 
       1.843614692489e-06       3.190510341681e+00 
       2.320973385932e-06       3.992180301170e+00 
       2.921932375647e-06       4.995283402942e+00 
       3.678494919247e-06       6.250433070705e+00 
       4.630950730995e-06       7.820960131473e+00 
       5.830021556017e-06       9.786108198783e+00 
       7.339562288177e-06       1.224503187298e+01 
       9.239961476032e-06       1.532179940156e+01 
       1.163242230618e-05       1.917165203012e+01 
       1.464435204197e-05       2.398883551404e+01 
       1.843614692489e-05       3.001639820685e+01 
       2.320973385932e-05       3.755844867808e+01 
       2.921932375647e-05       4.699548847611e+01 
       3.678494919247e-05       5.880358803922e+01 
       4.630950730995e-05       7.357836209004e+01 
       5.830021556017e-05       9.206493210237e+01 
       7.339562288177e-05       1.151953438064e+02 
       9.239961476032e-05       1.441352413898e+02 
       1.163242230618e-04       1.803419835522e+02 
       1.464435204197e-04       2.256368017667e+02 
       1.843614692489e-04       2.822939974649e+02 
       2.320973385932e-04       3.531504453486e+02 
       2.921932375647e-04       4.417386134768e+02 
       3.678494919247e-04       5.524456042001e+02 
       4.630950730995e-04       6.906989557856e+02 
       5.830021556017e-04       8.631768434520e+02 
       7.339562288177e-04       1.078036049957e+03 
       9.239961476032e-04       1.345145395419e+03 
       1.163242230618e-03       1.676298823856e+03 
       1.464435204197e-03       2.085341423530e+03 
       1.843614692489e-03       2.588075199073e+03 
       2.320973385932e-03       3.201796846204e+03 
       2.921932375647e-03       3.944266411198e+03 
       3.678494919247e-03       4.831791975623e+03 
       4.630950730995e-03       5.876105173350e+03 
       5.830021556017e-03       7.079454837735e+03 
       7.339562288177e-03       8.427571482329e+03 
       9.239961476032e-03       9.880273743312e+03 
       1.163242230618e-02       1.135991315285e+04 
       1.464435204197e-02       1.274015669824e+04 
       1.843614692118e-02       1.384263742474e+04 
       2.320972676066e-02       1.445906203577e+04 
       2.921723874549e-02       1.442528277026e+04 
       3.665258123282e-02       1.376368637642e+04 
       4.424224969084e-02       1.291149631726e+04 
       4.974708902764e-02       1.233109561461e+04 
       5.403151700024e-02       1.191444200003e+04 
       5.774060157597e-02       1.156966006580e+04 
       6.114005343284e-02       1.125724573129e+04 
       6.436039798112e-02       1.095728836168e+04 
       6.747584607018e-02       1.065876473795e+04 
       7.053325798171e-02       1.035564699162e+04 
       7.356465388385e-02       1.004523487551e+04 
       7.659332628422e-02       9.727301188405e+03 
       7.963711720091e-02       9.403536722021e+03 
       8.271030601709e-02       9.077084028489e+03 
       8.582476071158e-02       8.752069466246e+03 
       8.899067297411e-02       8.433103339932e+03 
       9.221704568188e-02       8.124751833803e+03 
       9.551202640693e-02       7.831005609588e+03 
       9.888314154013e-02       7.554784286440e+03 
       1.023374641428e-01       7.297524871130e+03 
       1.058817363225e-01       7.058905239396e+03 
       1.095224596036e-01       6.836757120361e+03 
       1.132659622733e-01       6.627217543417e+03 
       1.171184498488e-01       6.425153078478e+03 
       1.210860429960e-01       6.224859317714e+03 
       1.251748060359e-01       6.020981545659e+03 
       1.293907683880e-01       5.809527051342e+03 
       1.337399407760e-01       5.588763686520e+03 
       1.382283276713e-01       5.359758131247e+03 
       1.428619372181e-01       5.126337111631e+03 
       1.476467897349e-01       4.894371752556e+03 
       1.525889257883e-01       4.670470976724e+03 
       1.576944147748e-01       4.460363104753e+03 
       1.629693649072e-01       4.267378216372e+03 
       1.684199354800e-01       4.091471779464e+03 
       1.740523522709e-01       3.929146149316e+03 
       1.798729269250e-01       3.774432536825e+03 
       1.858880811642e-01       3.620792544405e+03 
       1.921043766603e-01       3.463411985329e+03 
       1.985285514198e-01       3.301032346854e+03 
       2.051675635505e-01       3.136448159823e+03 
       2.120286433248e-01       2.975268570881e+03 
       2.191193545289e-01       2.823367398638e+03 
       2.264476662111e-01       2.684171968007e+03 
       2.340220361177e-01       2.557121971258e+03 
       2.418515073668e-01       2.438138580809e+03 
       2.499458202632e-01       2.321970097834e+03 
       2.583155416432e-01       2.205197523007e+03 
       2.669722147880e-01       2.088085581162e+03 
       2.759285338040e-01       1.974000701568e+03 
       2.851985475062e-01       1.866746839689e+03 
       2.947978993501e-01       1.767752487818e+03 
       3.047441119526e-01       1.675222221863e+03 
       3.150569274227e-01       1.585874097886e+03 
       3.257587183276e-01       1.497761622809e+03 
       3.368749890455e-01       1.411649071276e+03 
       3.484349940631e-01       1.329696522885e+03 
       3.604725093038e-01       1.252920078431e+03 
       3.730268061400e-01       1.180190139897e+03 
       3.861438973479e-01       1.109758422738e+03 
       3.998781531374e-01       1.041279110041e+03 
       4.142944287172e-01       9.757142462721e+02 
       4.294709112835e-01       9.134880496936e+02 
       4.455029985669e-01       8.537809245719e+02 
       4.625086889170e-01       7.958891846306e+02 
       4.806362410608e-01       7.400577310646e+02 
       5.000753376320e-01       6.863909689753e+02 
       5.210738310182e-01       6.343270693653e+02 
       5.439637107836e-01       5.836093966711e+02 
       5.692029534656e-01       5.341654345927e+02 
       5.974460823556e-01       4.855276444931e+02 
       6.296696265698e-01       4.373403570408e+02 
       6.674096110133e-01       3.890583967573e+02 
       7.132450382724e-01       3.399480712282e+02 
       7.718634742446e-01       2.889790554145e+02 
       8.525674954922e-01       2.348460037549e+02 
       9.748708194018e-01       1.767043982646e+02 
       1.173233934783e+00       1.182590794563e+02 
       1.466823595118e+00       7.198903687576e+01 
       1.846224671437e+00       4.263962234248e+01 
       2.324255892251e+00       2.495859238114e+01 
       2.926064801790e+00       1.446115471427e+01 
       3.683697335529e+00       8.302494646788e+00 
       4.637500185056e+00       4.727454975191e+00 
       5.838266830167e+00       2.671786484103e+00 
       7.349942473332e+00       1.499796475329e+00 
       9.253029354903e+00       8.367262867678e-01 
       1.164887379096e+01       4.641809681573e-01 
