# Matter power spectrum P(k) at redshift z=1.5
# for k=2.02933e-07 to 10.1827 h/Mpc,
# number of wavenumbers equal to 139
#    1:k (h/Mpc)              2:P (Mpc/h)^3        
       2.029332956955e-07       3.956657289187e-01 
       2.554778828502e-07       4.931720264539e-01 
       3.216275988715e-07       6.147073901732e-01 
       4.049051573537e-07       7.661934480763e-01 
       5.097453919591e-07       9.550111302642e-01 
       6.417314274823e-07       1.190360293922e+00 
       8.078920016044e-07       1.483707971772e+00 
       1.017075770805e-06       1.849347085275e+00 
       1.280422533587e-06       2.305092843878e+00 
       1.611956465366e-06       2.873150761154e+00 
       2.029332956955e-06       3.581198577795e+00 
       2.554778828502e-06       4.463734804075e+00 
       3.216275988715e-06       5.563759582519e+00 
       4.049051573537e-06       6.934869750432e+00 
       5.097453919591e-06       8.643870159960e+00 
       6.417314274823e-06       1.077402843806e+01 
       8.078920016044e-06       1.342913166404e+01 
       1.017075770805e-05       1.673854242894e+01 
       1.280422533587e-05       2.086350023517e+01 
       1.611956465366e-05       2.600497447443e+01 
       2.029332956955e-05       3.241345012322e+01 
       2.554778828502e-05       4.040111989081e+01 
       3.216275988715e-05       5.035707096540e+01 
       4.049051573537e-05       6.276619458133e+01 
       5.097453919591e-05       7.823271659269e+01 
       6.417314274823e-05       9.750945013311e+01 
       8.078920016044e-05       1.215341058722e+02 
       1.017075770805e-04       1.514742535415e+02 
       1.280422533587e-04       1.887827817709e+02 
       1.611956465366e-04       2.352658915022e+02 
       2.029332956955e-04       2.931656534622e+02 
       2.554778828502e-04       3.652587253709e+02 
       3.216275988715e-04       4.549715620421e+02 
       4.049051573537e-04       5.665098002058e+02 
       5.097453919591e-04       7.049949461403e+02 
       6.417314274823e-04       8.765952341313e+02 
       8.078920016044e-04       1.088631291967e+03 
       1.017075770805e-03       1.349631924079e+03 
       1.280422533587e-03       1.669297015848e+03 
       1.611956465366e-03       2.058253007461e+03 
       2.029332956955e-03       2.527385134523e+03 
       2.554778828502e-03       3.086627453934e+03 
       3.216275988715e-03       3.743084840061e+03 
       4.049051573537e-03       4.498197158788e+03 
       5.097453919591e-03       5.343632115119e+03 
       6.417314274823e-03       6.255835700658e+03 
       8.078920016044e-03       7.189276195048e+03 
       1.017075770805e-02       8.068747531605e+03 
       1.280422533587e-02       8.783131366123e+03 
       1.611956465334e-02       9.187489392701e+03 
       2.029332848636e-02       9.129234357463e+03 
       2.554728374106e-02       8.521072409863e+03 
       3.211596170940e-02       7.465647571724e+03 
       3.941920660420e-02       6.407666798713e+03 
       4.502368913915e-02       5.809318263628e+03 
       4.922494863977e-02       5.472723230997e+03 
       5.278220575551e-02       5.239960966033e+03 
       5.600332130032e-02       5.052884903396e+03 
       5.903252070750e-02       4.884693101411e+03 
       6.194904727393e-02       4.720944306400e+03 
       6.480170928103e-02       4.553486299318e+03 
       6.762322611053e-02       4.378111955081e+03 
       7.043703440589e-02       4.193485464952e+03 
       7.326085646618e-02       4.000519036554e+03 
       7.610872026480e-02       3.801884312488e+03 
       7.899217418603e-02       3.601528980977e+03 
       8.192105392104e-02       3.404156920773e+03 
       8.490398627904e-02       3.214677861046e+03 
       8.794873121088e-02       3.037659306626e+03 
       9.106242038478e-02       2.876822105781e+03 
       9.425172734680e-02       2.734619158737e+03 
       9.752299107518e-02       2.611927394846e+03 
       1.008823069451e-01       2.507873296204e+03 
       1.043355943764e-01       2.419814302511e+03 
       1.078886474686e-01       2.343509285664e+03 
       1.115471730284e-01       2.273521155332e+03 
       1.153168191562e-01       2.203887336525e+03 
       1.192031967432e-01       2.129040692876e+03 
       1.232118956849e-01       2.044865443296e+03 
       1.273484972577e-01       1.949653010020e+03 
       1.316185838635e-01       1.844651824221e+03 
       1.360277471897e-01       1.733946015307e+03 
       1.405815957325e-01       1.623579271045e+03 
       1.452857625648e-01       1.520099281430e+03 
       1.501459141893e-01       1.428910509278e+03 
       1.551677612964e-01       1.352880417421e+03 
       1.603570722239e-01       1.291549089473e+03 
       1.657196899112e-01       1.241154396993e+03 
       1.712615531290e-01       1.195578964056e+03 
       1.769887227645e-01       1.148175014761e+03 
       1.829074139487e-01       1.094074460032e+03 
       1.890240348251e-01       1.032118152772e+03 
       1.953452327978e-01       9.653657685025e+02 
       2.018779491560e-01       8.996918324253e+02 
       2.086294830745e-01       8.410363358180e+02 
       2.156075661377e-01       7.926651443551e+02 
       2.228204487554e-01       7.537466771030e+02 
       2.302770001405e-01       7.199023524662e+02 
       2.379868239373e-01       6.855974262417e+02 
       2.459603921438e-01       6.473093920810e+02 
       2.542092007186e-01       6.055678878849e+02 
       2.627459512396e-01       5.642805851532e+02 
       2.715847642867e-01       5.276999101650e+02 
       2.807414319386e-01       4.973146530993e+02 
       2.902337190745e-01       4.709855136913e+02 
       3.000817262665e-01       4.449487379150e+02 
       3.103083312543e-01       4.171114526697e+02 
       3.209397317908e-01       3.886910090481e+02 
       3.320061207323e-01       3.625280340003e+02 
       3.435425357057e-01       3.398857539513e+02 
       3.555899421777e-01       3.192663916488e+02 
       3.681966329094e-01       2.985001944345e+02 
       3.814200628551e-01       2.774540159521e+02 
       3.953292935375e-01       2.577419688834e+02 
       4.100083066505e-01       2.399958765764e+02 
       4.255605836865e-01       2.230232210723e+02 
       4.421155736779e-01       2.060767010858e+02 
       4.598380532444e-01       1.899412678219e+02 
       4.789420542617e-01       1.748787634131e+02 
       4.997122607842e-01       1.601180159317e+02 
       5.225381204544e-01       1.457552465228e+02 
       5.479706288500e-01       1.319644642502e+02 
       5.768217889842e-01       1.183177765554e+02 
       6.103495856411e-01       1.048906315091e+02 
       6.506269849852e-01       9.139041501430e+01 
       7.013381471643e-01       7.763550783793e+01 
       7.696270527871e-01       6.329981071029e+01 
       8.703953153526e-01       4.813812153373e+01 
       1.032531734518e+00       3.271056945304e+01 
       1.282739033831e+00       1.983251872629e+01 
       1.613855049170e+00       1.155547571115e+01 
       2.031710338607e+00       6.656888462737e+00 
       2.557771745403e+00       3.800807559934e+00 
       3.220043847848e+00       2.152688877673e+00 
       4.053795027148e+00       1.210364980865e+00 
       5.103425573881e+00       6.760365280746e-01 
       6.424832142159e+00       3.753161209121e-01 
       8.088384450276e+00       2.072152291611e-01 
       1.018267272481e+01       1.138256780982e-01 
