# Matter power spectrum P(k) at redshift z=1.5
# for k=1.62296e-07 to 10.252 h/Mpc,
# number of wavenumbers equal to 140
#    1:k (h/Mpc)              2:P (Mpc/h)^3        
       1.622961352912e-07       6.415255388092e-01 
       2.043187289540e-07       8.023871217247e-01 
       2.572220399857e-07       1.003584509037e+00 
       3.238233626116e-07       1.255231843535e+00 
       4.076694601243e-07       1.569979374059e+00 
       5.132254429629e-07       1.963649379248e+00 
       6.461125521253e-07       2.456031548596e+00 
       8.134075107498e-07       3.071877802303e+00 
       1.024019385427e-06       3.842146558775e+00 
       1.289164026484e-06       4.805558995924e+00 
       1.622961352912e-06       6.010545533072e+00 
       2.043187289540e-06       7.517680372913e+00 
       2.572220399857e-06       9.402726466855e+00 
       3.238233626116e-06       1.176044392894e+01 
       4.076694601243e-06       1.470935326618e+01 
       5.132254429629e-06       1.839769270660e+01 
       6.461125521253e-06       2.301086876738e+01 
       8.134075107498e-06       2.878077397815e+01 
       1.024019385427e-05       3.599743882681e+01 
       1.289164026484e-05       4.502360121006e+01 
       1.622961352912e-05       5.631292067557e+01 
       2.043187289540e-05       7.043274320172e+01 
       2.572220399857e-05       8.809254109767e+01 
       3.238233626116e-05       1.101794186914e+02 
       4.076694601243e-05       1.378023913395e+02 
       5.132254429629e-05       1.723475110463e+02 
       6.461125521253e-05       2.155463087305e+02 
       8.134075107498e-05       2.695604018284e+02 
       1.024019385427e-04       3.370853622447e+02 
       1.289164026484e-04       4.214768174193e+02 
       1.622961352912e-04       5.269008106846e+02 
       2.043187289540e-04       6.585078680802e+02 
       2.572220399857e-04       8.226247414885e+02 
       3.238233626116e-04       1.026947880635e+03 
       4.076694601243e-04       1.280707652654e+03 
       5.132254429629e-04       1.594755300914e+03 
       6.461125521253e-04       1.981515210016e+03 
       8.134075107498e-04       2.454746484669e+03 
       1.024019385427e-03       3.029011261608e+03 
       1.289164026484e-03       3.718524015979e+03 
       1.622961352912e-03       4.534884943270e+03 
       2.043187289540e-03       5.483715522016e+03 
       2.572220399857e-03       6.560375538441e+03 
       3.238233626116e-03       7.744588125245e+03 
       4.076694601243e-03       8.993515666373e+03 
       5.132254429629e-03       1.023498623828e+04 
       6.461125521253e-03       1.136060322902e+04 
       8.134075107498e-03       1.222045181637e+04 
       1.024019385427e-02       1.262314875602e+04 
       1.289164026484e-02       1.235357141128e+04 
       1.622961348705e-02       1.123505100748e+04 
       2.043183030353e-02       9.269089120130e+03 
       2.571476733233e-02       6.825306164178e+03 
       3.207842231341e-02       4.711264292297e+03 
       3.778948370334e-02       3.677035476389e+03 
       4.188505545362e-02       3.305351394223e+03 
       4.520550411535e-02       3.144642092623e+03 
       4.814369977994e-02       3.058701277664e+03 
       5.086993207481e-02       2.994539740778e+03 
       5.347229878855e-02       2.925682570470e+03 
       5.600277027682e-02       2.837634006226e+03 
       5.849506995417e-02       2.723228843419e+03 
       6.097273694917e-02       2.580809058170e+03 
       6.345319438054e-02       2.413186724193e+03 
       6.594998506440e-02       2.226685771742e+03 
       6.847408468256e-02       2.030033199040e+03 
       7.103471517362e-02       1.833095596891e+03 
       7.363987079664e-02       1.645588296682e+03 
       7.629667067459e-02       1.475938282380e+03 
       7.901160209753e-02       1.330465555814e+03 
       8.179069254889e-02       1.212965669089e+03 
       8.463963374993e-02       1.124655725239e+03 
       8.756387250279e-02       1.064338614888e+03 
       9.056867799552e-02       1.028607478479e+03 
       9.365919206528e-02       1.011990016910e+03 
       9.684046690721e-02       1.007106551440e+03 
       1.001174934159e-01       1.005093014569e+03 
       1.034952224935e-01       9.965860508137e+02 
       1.069785810897e-01       9.733734823843e+02 
       1.105724843661e-01       9.304014528965e+02 
       1.142818451201e-01       8.674094334813e+02 
       1.181115814444e-01       7.893469499891e+02 
       1.220666234861e-01       7.051263252674e+02 
       1.261519201032e-01       6.250559321660e+02 
       1.303724461715e-01       5.579898417863e+02 
       1.347332112696e-01       5.092818220938e+02 
       1.392392704516e-01       4.799755245089e+02 
       1.438957378053e-01       4.669036674268e+02 
       1.487078034895e-01       4.632896562004e+02 
       1.536807549339e-01       4.600733614893e+02 
       1.588200028936e-01       4.485103023245e+02 
       1.641311130527e-01       4.236647219283e+02 
       1.696198439010e-01       3.868699973336e+02 
       1.752921916455e-01       3.450790243714e+02 
       1.811544429962e-01       3.071553834897e+02 
       1.872132367753e-01       2.795583534591e+02 
       1.934756354644e-01       2.638677754038e+02 
       1.999492080398e-01       2.566489233965e+02 
       2.066421257665e-01       2.511737570572e+02 
       2.135632730579e-01       2.408505349905e+02 
       2.207223760881e-01       2.232217784602e+02 
       2.281301526153e-01       2.014579335304e+02 
       2.357984874894e-01       1.815645811106e+02 
       2.437406396685e-01       1.677422941721e+02 
       2.519714883567e-01       1.597306793341e+02 
       2.605078282843e-01       1.535397462147e+02 
       2.693687274012e-01       1.448872795052e+02 
       2.785759647161e-01       1.329571308226e+02 
       2.881545721939e-01       1.207382735220e+02 
       2.981335133371e-01       1.114134838956e+02 
       3.085465435170e-01       1.050290050035e+02 
       3.194333152281e-01       9.894635355898e+01 
       3.308408182390e-01       9.132557302376e+01 
       3.428252851106e-01       8.330184310891e+01 
       3.554547550759e-01       7.680697335078e+01 
       3.688125881727e-01       7.154972908231e+01 
       3.830023821600e-01       6.593123270253e+01 
       3.981550135684e-01       6.001608513753e+01 
       4.144389893115e-01       5.492137982697e+01 
       4.320761307204e-01       5.024713844088e+01 
       4.513661777796e-01       4.537720822773e+01 
       4.727269818705e-01       4.088967423348e+01 
       4.967633578150e-01       3.655961506461e+01 
       5.243918244965e-01       3.227302467340e+01 
       5.570819832743e-01       2.809607392977e+01 
       5.973602808539e-01       2.391083059321e+01 
       6.499475330641e-01       1.964589589845e+01 
       7.244521989995e-01       1.522868600506e+01 
       8.407975070175e-01       1.069976538559e+01 
       1.028064488894e+00       6.603660111119e+00 
       1.290723600537e+00       3.795650276317e+00 
       1.624840357719e+00       2.151084634289e+00 
       2.045552408291e+00       1.210471429807e+00 
       2.575197907660e+00       6.768596395730e-01 
       3.241982086352e+00       3.762929462563e-01 
       4.081413633090e+00       2.080870194079e-01 
       5.138195338740e+00       1.145089182552e-01 
       6.468604682702e+00       6.272930873930e-02 
       8.143490813905e+00       3.421985963079e-02 
       1.025204752634e+01       1.859429259695e-02 
