# Matter power spectrum P(k) at redshift z=1
# for k=2.10254e-07 to 10.5491 h/Mpc,
# number of wavenumbers equal to 139
#    1:k (h/Mpc)              2:P (Mpc/h)^3        
       2.102535388843e-07       3.626409240809e-01 
       2.646935230211e-07       4.515094167700e-01 
       3.332294024686e-07       5.621559505151e-01 
       4.195109627248e-07       6.999174343965e-01 
       5.281330115004e-07       8.714386358960e-01 
       6.648800689853e-07       1.084992683410e+00 
       8.370344146410e-07       1.350880110852e+00 
       1.053763895138e-06       1.681925691226e+00 
       1.326610145620e-06       2.094097023142e+00 
       1.670103223865e-06       2.607274706413e+00 
       2.102535388843e-06       3.246211253649e+00 
       2.646935230211e-06       4.041724985591e+00 
       3.332294024686e-06       5.032186492587e+00 
       4.195109627248e-06       6.265369344698e+00 
       5.281330115004e-06       7.800754293905e+00 
       6.648800689853e-06       9.712398062046e+00 
       8.370344146410e-06       1.209250498833e+01 
       1.053763895138e-05       1.505587362549e+01 
       1.326610145620e-05       1.874543238558e+01 
       1.670103223865e-05       2.333913051063e+01 
       2.102535388843e-05       2.905851529188e+01 
       2.646935230211e-05       3.617940640152e+01 
       3.332294024686e-05       4.504517655218e+01 
       4.195109627248e-05       5.608326798258e+01 
       5.281330115004e-05       6.982571952497e+01 
       6.648800689853e-05       8.693465138895e+01 
       8.370344146410e-05       1.082338523900e+02 
       1.053763895138e-04       1.347478279496e+02 
       1.326610145620e-04       1.677498701648e+02 
       1.670103223865e-04       2.088208456357e+02 
       2.102535388843e-04       2.599203459182e+02 
       2.646935230211e-04       3.234713987901e+02 
       3.332294024686e-04       4.024587587162e+02 
       4.195109627248e-04       5.005384517249e+02 
       5.281330115004e-04       6.221524599729e+02 
       6.648800689853e-04       7.726376284940e+02 
       8.370344146410e-04       9.583133473612e+02 
       1.053763895138e-03       1.186526303490e+03 
       1.326610145620e-03       1.465604884236e+03 
       1.670103223865e-03       1.804607618974e+03 
       2.102535388843e-03       2.212708801373e+03 
       2.646935230211e-03       2.698140234199e+03 
       3.332294024686e-03       3.266519101453e+03 
       4.195109627248e-03       3.918386578134e+03 
       5.281330115004e-03       4.645671416514e+03 
       6.648800689853e-03       5.427049406632e+03 
       8.370344146410e-03       6.222295985389e+03 
       1.053763895138e-02       6.965909559744e+03 
       1.326610145620e-02       7.562060932555e+03 
       1.670103223848e-02       7.886574136143e+03 
       2.102535322045e-02       7.809148743323e+03 
       2.646899614969e-02       7.255180273347e+03 
       3.328605531753e-02       6.311343641588e+03 
       4.101232056785e-02       5.352530471559e+03 
       4.708211606372e-02       4.805432857216e+03 
       5.158543404492e-02       4.507362196670e+03 
       5.537177851810e-02       4.306351843748e+03 
       5.878745001523e-02       4.147580655572e+03 
       6.199243483816e-02       4.006334469315e+03 
       6.507373828757e-02       3.869464859482e+03 
       6.808455401173e-02       3.729586889060e+03 
       7.106034057338e-02       3.582875493601e+03 
       7.402638215949e-02       3.428069767756e+03 
       7.700172641634e-02       3.265904504904e+03 
       8.000140215519e-02       3.098671419685e+03 
       8.303774750764e-02       2.929789492384e+03 
       8.612124563722e-02       2.763345662713e+03 
       8.926107225720e-02       2.603611430860e+03 
       9.246546648439e-02       2.454563983027e+03 
       9.574198904248e-02       2.319449357768e+03 
       9.909770614158e-02       2.200421480434e+03 
       1.025393228333e-01       2.098280968309e+03 
       1.060732811018e-01       2.012328564973e+03 
       1.097058327653e-01       1.940347981514e+03 
       1.134430940231e-01       1.878743667447e+03 
       1.172910864145e-01       1.822871256834e+03 
       1.212557676093e-01       1.767595462485e+03 
       1.253430545590e-01       1.708068474490e+03 
       1.295588409523e-01       1.640637116334e+03 
       1.339090105193e-01       1.563681432461e+03 
       1.383994474728e-01       1.478117172666e+03 
       1.430360452004e-01       1.387325442211e+03 
       1.478247142128e-01       1.296425942545e+03 
       1.527713902809e-01       1.211039573130e+03 
       1.578820436521e-01       1.135874923161e+03 
       1.631626902092e-01       1.073524680621e+03 
       1.686194054151e-01       1.023770036943e+03 
       1.742583418778e-01       9.835651694590e+02 
       1.800857513608e-01       9.477896014765e+02 
       1.861080120610e-01       9.107498357069e+02 
       1.923316619811e-01       8.681343467377e+02 
       1.987634392389e-01       8.187105263714e+02 
       2.054103301927e-01       7.648614949192e+02 
       2.122796263217e-01       7.114859388029e+02 
       2.193789909060e-01       6.636963438167e+02 
       2.267165367009e-01       6.244603837229e+02 
       2.343009160293e-01       5.933119009837e+02 
       2.421414250226e-01       5.667071620322e+02 
       2.502481241756e-01       5.399521136098e+02 
       2.586319779508e-01       5.098753347386e+02 
       2.673050169391e-01       4.766734081293e+02 
       2.762805270928e-01       4.435121888212e+02 
       2.855732718913e-01       4.140505289815e+02 
       2.951997550757e-01       3.897569293655e+02 
       3.051785339582e-01       3.690209697442e+02 
       3.155305965022e-01       3.486897043373e+02 
       3.262798196993e-01       3.268312480358e+02 
       3.374535327319e-01       3.042834487610e+02 
       3.490832167163e-01       2.834209974251e+02 
       3.612053845819e-01       2.654646833198e+02 
       3.738627015438e-01       2.493005443652e+02 
       3.871054313577e-01       2.330682243272e+02 
       4.009933304115e-01       2.165021840472e+02 
       4.155981678044e-01       2.009142674854e+02 
       4.310071368734e-01       1.869550601110e+02 
       4.473275629334e-01       1.737001879700e+02 
       4.646935405146e-01       1.604350953191e+02 
       4.832755199744e-01       1.477605296025e+02 
       5.032945404984e-01       1.359846262297e+02 
       5.250440399017e-01       1.244790566188e+02 
       5.489245203302e-01       1.132576395508e+02 
       5.755010531772e-01       1.025208508028e+02 
       6.056035849376e-01       9.191044628115e+01 
       6.405125788886e-01       8.148776235924e+01 
       6.823272645094e-01       7.103411114309e+01 
       7.347554398745e-01       6.041520551743e+01 
       8.049389697316e-01       4.938125248959e+01 
       9.077257429936e-01       3.773696542519e+01 
       1.072428160648e+00       2.583296665103e+01 
       1.329180061712e+00       1.571449893666e+01 
       1.671935941556e+00       9.141655704565e+00 
       2.104822811812e+00       5.255993471330e+00 
       2.649814872914e+00       2.995307282234e+00 
       3.335919280043e+00       1.693411387035e+00 
       4.199673553341e+00       9.504787558557e-01 
       5.287075757540e+00       5.299885119302e-01 
       6.656034025249e+00       2.937553735468e-01 
       8.379450376152e+00       1.619278342304e-01 
       1.054910301541e+01       8.881113641660e-02 
