# Matter power spectrum P(k) at redshift z=0.5
# for k=1.94355e-07 to 12.2777 h/Mpc,
# number of wavenumbers equal to 140
#    1:k (h/Mpc)              2:P (Mpc/h)^3        
       1.943549131321e-07       9.214609362833e-01 
       2.446783390491e-07       1.142212552376e+00 
       3.080317787445e-07       1.415848966598e+00 
       3.877890339016e-07       1.755039630117e+00 
       4.881974691938e-07       2.175489175429e+00 
       6.146041999417e-07       2.696664545709e+00 
       7.737408455020e-07       3.342696318841e+00 
       9.740820125456e-07       4.143495958511e+00 
       1.226296598765e-06       5.136140719619e+00 
       1.543815950582e-06       6.366590328019e+00 
       1.943549131321e-06       7.891814912459e+00 
       2.446783390491e-06       9.782432704058e+00 
       3.080317787445e-06       1.212597961415e+01 
       3.877890339016e-06       1.503096204092e+01 
       4.881974691938e-06       1.863188048353e+01 
       6.146041999417e-06       2.309545643895e+01 
       7.737408455020e-06       2.862835063894e+01 
       9.740820125456e-06       3.548672950390e+01 
       1.226296598765e-05       4.398812178815e+01 
       1.543815950582e-05       5.452611252962e+01 
       1.943549131321e-05       6.758855096857e+01 
       2.446783390491e-05       8.378010828541e+01 
       3.080317787445e-05       1.038502154894e+02 
       3.877890339016e-05       1.287276473202e+02 
       4.881974691938e-05       1.595632992102e+02 
       6.146041999417e-05       1.977830318056e+02 
       7.737408455020e-05       2.451528227544e+02 
       9.740820125456e-05       3.038588395618e+02 
       1.226296598765e-04       3.766053623970e+02 
       1.543815950582e-04       4.667335995061e+02 
       1.943549131321e-04       5.783640823803e+02 
       2.446783390491e-04       7.165640471072e+02 
       3.080317787445e-04       8.875383418749e+02 
       3.877890339016e-04       1.098837275122e+03 
       4.881974691938e-04       1.359567398178e+03 
       6.146041999417e-04       1.680582919620e+03 
       7.737408455020e-04       2.074626712693e+03 
       9.740820125456e-04       2.556366109078e+03 
       1.226296598765e-03       3.142188355675e+03 
       1.543815950582e-03       3.849508937545e+03 
       1.943549131321e-03       4.695385332170e+03 
       2.446783390491e-03       5.694177157468e+03 
       3.080317787445e-03       6.853988258829e+03 
       3.877890339016e-03       8.171573066921e+03 
       4.881974691938e-03       9.625230294379e+03 
       6.146041999417e-03       1.116588955416e+04 
       7.737408455020e-03       1.270663974262e+04 
       9.740820125456e-03       1.411175598896e+04 
       1.226296598765e-02       1.518962457312e+04 
       1.543815950544e-02       1.570140446386e+04 
       1.943549009381e-02       1.541103030015e+04 
       2.446728942073e-02       1.421018467082e+04 
       3.075438972276e-02       1.231730913110e+04 
       3.769904470178e-02       1.050494942881e+04 
       4.299232388524e-02       9.497934256034e+03 
       4.697357339938e-02       8.925975276339e+03 
       5.035179455613e-02       8.525259603106e+03 
       5.341433404463e-02       8.199697412626e+03 
       5.629639657718e-02       7.905427238033e+03 
       5.907250649085e-02       7.619217162056e+03 
       6.178867157019e-02       7.328317793667e+03 
       6.447578824811e-02       7.026498846070e+03 
       6.715601873566e-02       6.712188563921e+03 
       6.984614139546e-02       6.387364746413e+03 
       7.255945039632e-02       6.056681358384e+03 
       7.530689953600e-02       5.726626085336e+03 
       7.809782512093e-02       5.404647721468e+03 
       8.094042126864e-02       5.098267281790e+03 
       8.384206280645e-02       4.814223933315e+03 
       8.680953063870e-02       4.557718655828e+03 
       8.984917256284e-02       4.331810247651e+03 
       9.296702008280e-02       4.137004188301e+03 
       9.616887443518e-02       3.971063989734e+03 
       9.946037057672e-02       3.829079472140e+03 
       1.028470250852e-01       3.703844345236e+03 
       1.063342721348e-01       3.586603777420e+03 
       1.099274905411e-01       3.468203069537e+03 
       1.136320240981e-01       3.340569324795e+03 
       1.174531969202e-01       3.198298203344e+03 
       1.213963251584e-01       3.039953839907e+03 
       1.254667262347e-01       2.868626799368e+03 
       1.296697265905e-01       2.691418722972e+03 
       1.340106688482e-01       2.517837193105e+03 
       1.384949192257e-01       2.357467697362e+03 
       1.431278760037e-01       2.217550437026e+03 
       1.479149798243e-01       2.101106618590e+03 
       1.528617265836e-01       2.006082420994e+03 
       1.579736836683e-01       1.925773939799e+03 
       1.632565102832e-01       1.850624769756e+03 
       1.687159826131e-01       1.771193521162e+03 
       1.743580245656e-01       1.681513257154e+03 
       1.801887448593e-01       1.581455605172e+03 
       1.862144812557e-01       1.476732648599e+03 
       1.924418527913e-01       1.376219678115e+03 
       1.988778209642e-01       1.287801566924e+03 
       2.055297609732e-01       1.214783889948e+03 
       2.124055443178e-01       1.154551134216e+03 
       2.195136343592e-01       1.100110887878e+03 
       2.268631968405e-01       1.043961931182e+03 
       2.344642279021e-01       9.823861819880e+02 
       2.423277028369e-01       9.174344947690e+02 
       2.504657497758e-01       8.549969685407e+02 
       2.588918537353e-01       8.002767413886e+02 
       2.676210981147e-01       7.540812015944e+02 
       2.766704529342e-01       7.126536940784e+02 
       2.860591220712e-01       6.711004539084e+02 
       2.958089657954e-01       6.275934394585e+02 
       3.059450204603e-01       5.845031805836e+02 
       3.164961449804e-01       5.453538089152e+02 
       3.274958347242e-01       5.109313030188e+02 
       3.389832593065e-01       4.787977614245e+02 
       3.510046039920e-01       4.465571595813e+02 
       3.636148291182e-01       4.146697966555e+02 
       3.768800148547e-01       3.851074622340e+02 
       3.908805411599e-01       3.580836626850e+02 
       4.057154848410e-01       3.320017759629e+02 
       4.215088328618e-01       3.063576612865e+02 
       4.384184797631e-01       2.821320260436e+02 
       4.566496252591e-01       2.592779813449e+02 
       4.764753736970e-01       2.369554976684e+02 
       4.982696054754e-01       2.154106009609e+02 
       5.225617584553e-01       1.946232836191e+02 
       5.501329058762e-01       1.741625764006e+02 
       5.821947193252e-01       1.540335162044e+02 
       6.207471172216e-01       1.338571100964e+02 
       6.693514602747e-01       1.133321942534e+02 
       7.349281815881e-01       9.200002623325e+01 
       8.319257811614e-01       6.952664442580e+01 
       9.881753837903e-01       4.683578284640e+01 
       1.228482244993e+00       2.814931630121e+01 
       1.545678492638e+00       1.627865730843e+01 
       1.945883166979e+00       9.310373797879e+00 
       2.449721743735e+00       5.278451233484e+00 
       3.084016955007e+00       2.968983078512e+00 
       3.882547315062e+00       1.658031352136e+00 
       4.887837477425e+00       9.199075662872e-01 
       6.153422809050e+00       5.073540544877e-01 
       7.746700343827e+00       2.782995271210e-01 
       9.752517920398e+00       1.518938660537e-01 
       1.227769263897e+01       8.252039770498e-02 
