# Matter power spectrum P(k) at redshift z=1
# for k=2.29416e-07 to 11.5097 h/Mpc,
# number of wavenumbers equal to 139
#    1:k (h/Mpc)              2:P (Mpc/h)^3        
       2.294155176768e-07       3.576116664648e-01 
       2.888170250632e-07       4.439577873228e-01 
       3.635990922108e-07       5.511523681910e-01 
       4.577441368895e-07       6.842293152757e-01 
       5.762657260300e-07       8.494379822751e-01 
       7.254755664452e-07       1.054536642546e+00 
       9.133196262336e-07       1.309156820864e+00 
       1.149801286556e-06       1.625255593217e+00 
       1.447514058159e-06       2.017677094643e+00 
       1.822312231745e-06       2.504849603446e+00 
       2.294155176768e-06       3.109650934063e+00 
       2.888170250632e-06       3.860482776274e+00 
       3.635990922108e-06       4.792604424149e+00 
       4.577441368895e-06       5.949788516660e+00 
       5.762657260300e-06       7.386376514265e+00 
       7.254755664452e-06       9.169830395283e+00 
       9.133196262336e-06       1.138390029542e+01 
       1.149801286556e-05       1.413255665571e+01 
       1.447514058159e-05       1.754487115973e+01 
       1.822312231745e-05       2.178107491611e+01 
       2.294155176768e-05       2.704007692528e+01 
       2.888170250632e-05       3.356879301811e+01 
       3.635990922108e-05       4.167371769860e+01 
       4.577441368895e-05       5.173527117168e+01 
       5.762657260300e-05       6.422557346203e+01 
       7.254755664452e-05       7.973043743930e+01 
       9.133196262336e-05       9.897652967475e+01 
       1.149801286556e-04       1.228648108542e+02 
       1.447514058159e-04       1.525115080777e+02 
       1.822312231745e-04       1.892979297828e+02 
       2.294155176768e-04       2.349302941602e+02 
       2.888170250632e-04       2.915101959997e+02 
       3.635990922108e-04       3.616150585053e+02 
       4.577441368895e-04       4.483854981131e+02 
       5.762657260300e-04       5.556127359866e+02 
       7.254755664452e-04       6.878145500418e+02 
       9.133196262336e-04       8.502843105302e+02 
       1.149801286556e-03       1.049093021030e+03 
       1.447514058159e-03       1.291002284324e+03 
       1.822312231745e-03       1.583182953213e+03 
       2.294155176768e-03       1.932601292078e+03 
       2.888170250632e-03       2.345019221729e+03 
       3.635990922108e-03       2.823485094658e+03 
       4.577441368895e-03       3.366249190456e+03 
       5.762657260300e-03       3.963944005787e+03 
       7.254755664452e-03       4.596130759091e+03 
       9.133196262336e-03       5.227529343486e+03 
       1.149801286556e-02       5.804243602788e+03 
       1.447514058159e-02       6.251606700118e+03 
       1.822312231739e-02       6.477462511327e+03 
       2.294155144075e-02       6.389435610421e+03 
       2.888148808239e-02       5.938350500008e+03 
       3.633361985007e-02       5.189001415079e+03 
       4.499095208009e-02       4.403765054138e+03 
       5.207132758097e-02       3.928867233134e+03 
       5.724980569835e-02       3.667557880430e+03 
       6.155530300076e-02       3.487819904808e+03 
       6.541619520620e-02       3.343045056404e+03 
       6.902623546495e-02       3.213258465564e+03 
       7.248912865296e-02       3.088389938495e+03 
       7.586755710247e-02       2.963140077308e+03 
       7.920294387683e-02       2.835027831414e+03 
       8.252462275074e-02       2.703487024587e+03 
       8.585456577832e-02       2.569340018466e+03 
       8.921002479767e-02       2.434402950629e+03 
       9.260510348201e-02       2.301127871228e+03 
       9.605174148986e-02       2.172252268982e+03 
       9.956035653918e-02       2.050458184907e+03 
       1.031402778053e-01       1.938057071725e+03 
       1.068000468091e-01       1.836720981157e+03 
       1.105476311966e-01       1.747277924701e+03 
       1.143905794909e-01       1.669585033301e+03 
       1.183361347626e-01       1.602490933011e+03 
       1.223913190263e-01       1.543901239797e+03 
       1.265629963517e-01       1.490964782898e+03 
       1.308579202402e-01       1.440397276343e+03 
       1.352827692384e-01       1.388939080126e+03 
       1.398441737146e-01       1.333903765937e+03 
       1.445487360346e-01       1.273718088369e+03 
       1.494030459111e-01       1.208307709723e+03 
       1.544136923938e-01       1.139181553884e+03 
       1.595872737672e-01       1.069131211975e+03 
       1.649304064921e-01       1.001579129692e+03 
       1.704497342435e-01       9.397331227165e+02 
       1.761519380468e-01       8.857728776613e+02 
       1.820437484791e-01       8.402824866980e+02 
       1.881319608863e-01       8.020769911832e+02 
       1.944234545483e-01       7.684973820307e+02 
       2.009252167178e-01       7.361695959637e+02 
       2.076443724545e-01       7.020898818130e+02 
       2.145882211783e-01       6.647000566502e+02 
       2.217642808842e-01       6.244758576275e+02 
       2.291803409934e-01       5.836653839058e+02 
       2.368445248878e-01       5.452222277416e+02 
       2.447653632771e-01       5.114307483038e+02 
       2.529518797174e-01       4.828896202012e+02 
       2.614136898390e-01       4.583273960519e+02 
       2.701611161793e-01       4.353457949339e+02 
       2.792053209813e-01       4.117616327212e+02 
       2.885584599403e-01       3.868244768702e+02 
       2.982338607147e-01       3.615129953297e+02 
       3.082462311150e-01       3.376660459909e+02 
       3.186119033409e-01       3.165836713179e+02 
       3.293491225632e-01       2.981428189142e+02 
       3.404783907166e-01       2.810567276369e+02 
       3.520228798180e-01       2.640289881543e+02 
       3.640089338119e-01       2.468113082968e+02 
       3.764666843750e-01       2.302032660220e+02 
       3.894308150701e-01       2.150478960114e+02 
       4.029415208855e-01       2.013270040786e+02 
       4.170457283544e-01       1.883124688172e+02 
       4.317986679470e-01       1.755001113674e+02 
       4.472659298522e-01       1.631175545717e+02 
       4.635261941057e-01       1.515910587014e+02 
       4.806749189083e-01       1.408448485359e+02 
       4.988294187532e-01       1.304960205433e+02 
       5.181360055840e-01       1.204925414440e+02 
       5.387802734551e-01       1.110235690624e+02 
       5.610023175185e-01       1.020109035059e+02 
       5.851199660249e-01       9.328451094026e+01 
       6.115655434173e-01       8.488372430755e+01 
       6.409465390106e-01       7.675858830202e+01 
       6.741507866402e-01       6.880965744641e+01 
       7.125397295017e-01       6.099529571196e+01 
       7.583286004077e-01       5.320224502658e+01 
       8.153944431163e-01       4.531137382749e+01 
       8.911301908673e-01       3.715510814443e+01 
       1.000813030937e+00       2.857899265980e+01 
       1.175266131229e+00       1.976852183926e+01 
       1.450849610453e+00       1.208729383710e+01 
       1.824200353725e+00       7.009072375929e+00 
       2.296493259283e+00       4.013339561610e+00 
       2.891113596196e+00       2.277944834964e+00 
       3.639696374579e+00       1.282785996772e+00 
       4.582106257173e+00       7.172329138297e-01 
       5.768530006696e+00       3.984223412431e-01 
       7.262149014127e+00       2.200155438697e-01 
       9.142503938121e+00       1.208392911164e-01 
       1.150973053513e+01       6.603902230396e-02 
