# Matter power spectrum P(k) at redshift z=2.5
# for k=1.97777e-07 to 12.4916 h/Mpc,
# number of wavenumbers equal to 140
#    1:k (h/Mpc)              2:P (Mpc/h)^3        
       1.977773473820e-07       1.789017344315e-01 
       2.489869284964e-07       2.240085271907e-01 
       3.134559714887e-07       2.804881707806e-01 
       3.946176879858e-07       3.512081210184e-01 
       4.967942353488e-07       4.397588099177e-01 
       6.254268873134e-07       5.506359309343e-01 
       7.873658016582e-07       6.894686837511e-01 
       9.912348160852e-07       8.633055667333e-01 
       1.247890699025e-06       1.080972226121e+00 
       1.571001312144e-06       1.353519529459e+00 
       1.977773473820e-06       1.694784611739e+00 
       2.489869284964e-06       2.122093373597e+00 
       3.134559714887e-06       2.657140096982e+00 
       3.946176879858e-06       3.327088826882e+00 
       4.967942353488e-06       4.165952416851e+00 
       6.254268873134e-06       5.216319227171e+00 
       7.873658016582e-06       6.531515076057e+00 
       9.912348160852e-06       8.178310076477e+00 
       1.247890699025e-05       1.024030755827e+01 
       1.571001312144e-05       1.282218662542e+01 
       1.977773473820e-05       1.605501281852e+01 
       2.489869284964e-05       2.010288458133e+01 
       3.134559714887e-05       2.517124924207e+01 
       3.946176879858e-05       3.151730325959e+01 
       4.967942353488e-05       3.946299002437e+01 
       6.254268873134e-05       4.941122588588e+01 
       7.873658016582e-05       6.186612052530e+01 
       9.912348160852e-05       7.745810429644e+01 
       1.247890699025e-04       9.697501408042e+01 
       1.571001312144e-04       1.214002773338e+02 
       1.977773473820e-04       1.519592810894e+02 
       2.489869284964e-04       1.901746484588e+02 
       3.134559714887e-04       2.379301658429e+02 
       3.946176879858e-04       2.975410480451e+02 
       4.967942353488e-04       3.718245551619e+02 
       6.254268873134e-04       4.641595362403e+02 
       7.873658016582e-04       5.785176033176e+02 
       9.912348160852e-04       7.194458116237e+02 
       1.247890699025e-03       8.919804557334e+02 
       1.571001312144e-03       1.101447977194e+03 
       1.977773473820e-03       1.353020693240e+03 
       2.489869284964e-03       1.650865594672e+03 
       3.134559714887e-03       1.996940302735e+03 
       3.946176879858e-03       2.389389724295e+03 
       4.967942353488e-03       2.820332877760e+03 
       6.254268873134e-03       3.273261054010e+03 
       7.873658016582e-03       3.720202772249e+03 
       9.912348160852e-03       4.118987247249e+03 
       1.247890699025e-02       4.411869815415e+03 
       1.571001312138e-02       4.528747643755e+03 
       1.977773444280e-02       4.402091259048e+03 
       2.489850142995e-02       4.003259750681e+03 
       3.132235808404e-02       3.398940008701e+03 
       3.877545931076e-02       2.807012935454e+03 
       4.485598268735e-02       2.474264519872e+03 
       4.930660467026e-02       2.302974380286e+03 
       5.300942122541e-02       2.190954697667e+03 
       5.633104643666e-02       2.103193972499e+03 
       5.943750241645e-02       2.024772211142e+03 
       6.241773429249e-02       1.948167987849e+03 
       6.532553920465e-02       1.869442480900e+03 
       6.819648651945e-02       1.786813293424e+03 
       7.105577485955e-02       1.699998735579e+03 
       7.392228519608e-02       1.609828996757e+03 
       7.681084653876e-02       1.517940132760e+03 
       7.973358482103e-02       1.426483806834e+03 
       8.270076759249e-02       1.337835397691e+03 
       8.572135524307e-02       1.254309485103e+03 
       8.880337315248e-02       1.177900115367e+03 
       9.195417009961e-02       1.110065451930e+03 
       9.518060188555e-02       1.051570321801e+03 
       9.848916427066e-02       1.002391800080e+03 
       1.018860906288e-01       9.616903956365e+02 
       1.053774244570e-01       9.278528497425e+02 
       1.089690735988e-01       8.986199883662e+02 
       1.126668509506e-01       8.713211420512e+02 
       1.164765050604e-01       8.432263709328e+02 
       1.204037431342e-01       8.119958118372e+02 
       1.244542483719e-01       7.761501334577e+02 
       1.286336931568e-01       7.354366367425e+02 
       1.329477493620e-01       6.909502132119e+02 
       1.374020968616e-01       6.449202813123e+02 
       1.420024312256e-01       6.001821327278e+02 
       1.467544715027e-01       5.594697747041e+02 
       1.516639689548e-01       5.247302229353e+02 
       1.567367175740e-01       4.966387723987e+02 
       1.619785672010e-01       4.744233178797e+02 
       1.673954400475e-01       4.560454825375e+02 
       1.729933514184e-01       4.387515417188e+02 
       1.787784354287e-01       4.199300631301e+02 
       1.847569765085e-01       3.980451703205e+02 
       1.909354475085e-01       3.732402459508e+02 
       1.973205552468e-01       3.472417479831e+02 
       2.039192943946e-01       3.225300756205e+02 
       2.107390106958e-01       3.011763868644e+02 
       2.177874746536e-01       2.839237450301e+02 
       2.250729670273e-01       2.699261597271e+02 
       2.326043777745e-01       2.572526243881e+02 
       2.403913204727e-01       2.439572210574e+02 
       2.484442647915e-01       2.291816367196e+02 
       2.567746903066e-01       2.135774938167e+02 
       2.653952658915e-01       1.987005063990e+02 
       2.743200601809e-01       1.858171952307e+02 
       2.835647902584e-01       1.750288998762e+02 
       2.931471179398e-01       1.653351147378e+02 
       3.030870059962e-01       1.555477651542e+02 
       3.134071507046e-01       1.452941375499e+02 
       3.241335126587e-01       1.351958627534e+02 
       3.352959755041e-01       1.260729903368e+02 
       3.469291731708e-01       1.180542699397e+02 
       3.590735418432e-01       1.105483414951e+02 
       3.717766757784e-01       1.030321685707e+02 
       3.850951001074e-01       9.563889598161e+01 
       3.990966254090e-01       8.879709927012e+01 
       4.138635290400e-01       8.252787008773e+01 
       4.294969358046e-01       7.648701749565e+01 
       4.461229792091e-01       7.057949370902e+01 
       4.639016763398e-01       6.500238870580e+01 
       4.830400631722e-01       5.973743278278e+01 
       5.038122501769e-01       5.461804513561e+01 
       5.265911670133e-01       4.968545530885e+01 
       5.519009650704e-01       4.493304134609e+01 
       5.805078980573e-01       4.027394146619e+01 
       6.135873814460e-01       3.570132274135e+01 
       6.530527801193e-01       3.113924118601e+01 
       7.022545672558e-01       2.652239787607e+01 
       7.675853040088e-01       2.175081383637e+01 
       8.622599661490e-01       1.673380720165e+01 
       1.012911992373e+00       1.158131437336e+01 
       1.250731094232e+00       7.093340502732e+00 
       1.572630531497e+00       4.125579550934e+00 
       1.979792082858e+00       2.370916784917e+00 
       2.492410459397e+00       1.351308789928e+00 
       3.137758863911e+00       7.644575185400e-01 
       3.950204369860e+00       4.295475473519e-01 
       4.973012662997e+00       2.398779602231e-01 
       6.260652014621e+00       1.332055560317e-01 
       7.881693915607e+00       7.358872112617e-02 
       9.922464758341e+00       4.046100746814e-02 
       1.249164303191e+01       2.214907056522e-02 
