# Matter power spectrum P(k) at redshift z=2.5
# for k=1.56988e-07 to 12.4863 h/Mpc,
# number of wavenumbers equal to 141
#    1:k (h/Mpc)              2:P (Mpc/h)^3        
       1.569878850523e-07       4.990740770393e-01 
       1.976360378362e-07       6.203474646328e-01 
       2.488090303183e-07       7.710898931477e-01 
       3.132320109515e-07       9.584622438058e-01 
       3.943357383743e-07       1.191365468328e+00 
       4.964392818180e-07       1.480863419613e+00 
       6.249800272935e-07       1.840708429092e+00 
       7.868032382236e-07       2.287994596123e+00 
       9.905265906817e-07       2.843969822650e+00 
       1.246999096067e-06       3.535045165968e+00 
       1.569878850523e-06       4.394049453381e+00 
       1.976360378362e-06       5.461788746190e+00 
       2.488090303183e-06       6.788984725336e+00 
       3.132320109515e-06       8.438684029059e+00 
       3.943357383743e-06       1.048925294098e+01 
       4.964392818180e-06       1.303809955104e+01 
       6.249800272935e-06       1.620629992023e+01 
       7.868032382236e-06       2.014434751192e+01 
       9.905265906817e-06       2.503929793827e+01 
       1.246999096067e-05       3.112364639417e+01 
       1.569878850523e-05       3.868635542201e+01 
       1.976360378362e-05       4.808654892879e+01 
       2.488090303183e-05       5.977050727670e+01 
       3.132320109515e-05       7.429273988861e+01 
       3.943357383743e-05       9.234207571281e+01 
       4.964392818180e-05       1.147738917381e+02 
       6.249800272935e-05       1.426497764313e+02 
       7.868032382236e-05       1.772860549311e+02 
       9.905265906817e-05       2.203125895673e+02 
       1.246999096067e-04       2.737429240353e+02 
       1.569878850523e-04       3.400558003913e+02 
       1.976360378362e-04       4.222857033259e+02 
       2.488090303183e-04       5.241153470312e+02 
       3.132320109515e-04       6.499545730999e+02 
       3.943357383743e-04       8.049771151574e+02 
       4.964392818180e-04       9.950712892921e+02 
       6.249800272935e-04       1.226652767251e+03 
       7.868032382236e-04       1.506303819958e+03 
       9.905265906817e-04       1.840230867628e+03 
       1.246999096067e-03       2.233446648391e+03 
       1.569878850523e-03       2.688309324922e+03 
       1.976360378362e-03       3.202288295251e+03 
       2.488090303183e-03       3.765704454533e+03 
       3.132320109515e-03       4.359417016703e+03 
       3.943357383743e-03       4.952550130618e+03 
       4.964392818180e-03       5.501465443387e+03 
       6.249800272935e-03       5.949990478996e+03 
       7.868032382236e-03       6.231503503500e+03 
       9.905265906817e-03       6.273657157638e+03 
       1.246999096067e-02       6.008982596415e+03 
       1.569878848973e-02       5.398482466379e+03 
       1.976358378796e-02       4.475877343810e+03 
       2.487664856484e-02       3.400102906375e+03 
       3.111712890901e-02       2.464807900137e+03 
       3.701538180934e-02       1.961076041085e+03 
       4.123600139010e-02       1.756786851970e+03 
       4.460673146623e-02       1.646237057352e+03 
       4.756575648512e-02       1.566965390629e+03 
       5.029892993366e-02       1.496874919332e+03 
       5.290055190726e-02       1.426409883428e+03 
       5.542548769327e-02       1.351436048052e+03 
       5.790897526263e-02       1.270817028282e+03 
       6.037541344645e-02       1.185322688259e+03 
       6.284274280828e-02       1.096963223686e+03 
       6.532483079110e-02       1.008465584844e+03 
       6.783286239375e-02       9.228106163245e+02 
       7.037619648055e-02       8.428278154018e+02 
       7.296291692284e-02       7.708691201634e+02 
       7.560020047216e-02       7.085832428689e+02 
       7.829456980393e-02       6.567947342256e+02 
       8.105207194571e-02       6.154740608393e+02 
       8.387840665757e-02       5.837704736829e+02 
       8.677902029197e-02       5.600857638868e+02 
       8.975917524898e-02       5.421871810738e+02 
       9.282400180462e-02       5.273857014258e+02 
       9.597853697837e-02       5.128188089733e+02 
       9.922775374253e-02       4.958538835094e+02 
       1.025765829818e-01       4.745674403307e+02 
       1.060299300189e-01       4.481786769481e+02 
       1.095926871276e-01       4.172715713295e+02 
       1.132697431912e-01       3.836754455392e+02 
       1.170659914923e-01       3.499929127658e+02 
       1.209863365052e-01       3.189128245891e+02 
       1.250357004919e-01       2.925343721963e+02 
       1.292190306544e-01       2.718982871994e+02 
       1.335413075721e-01       2.568073186645e+02 
       1.380075556285e-01       2.459211291711e+02 
       1.426228561279e-01       2.371011931840e+02 
       1.473923637878e-01       2.280005981082e+02 
       1.523213272915e-01       2.168186243994e+02 
       1.574151145865e-01       2.029572506589e+02 
       1.626792436203e-01       1.872161729165e+02 
       1.681194192272e-01       1.713471678669e+02 
       1.737415769213e-01       1.571823427273e+02 
       1.795519344168e-01       1.458095231005e+02 
       1.855570518062e-01       1.371793082354e+02 
       1.917639014813e-01       1.302542063964e+02 
       1.981799491068e-01       1.236025918042e+02 
       2.048132472666e-01       1.161817327707e+02 
       2.116725438163e-01       1.078817713149e+02 
       2.187674075382e-01       9.944844476351e+01 
       2.261083744336e-01       9.183999491448e+01 
       2.337071189642e-01       8.552842333686e+01 
       2.415766558526e-01       8.025018425315e+01 
       2.497315797717e-01       7.532436410569e+01 
       2.581883525595e-01       7.024699050001e+01 
       2.669656507153e-01       6.505691545440e+01 
       2.760847901978e-01       6.016069146711e+01 
       2.855702514524e-01       5.584448336404e+01 
       2.954503358997e-01       5.200531052308e+01 
       3.057579969596e-01       4.834305417154e+01 
       3.165319058760e-01       4.472843396241e+01 
       3.278178379992e-01       4.128643777791e+01 
       3.396705034499e-01       3.814040220104e+01 
       3.521560050096e-01       3.522744779280e+01 
       3.653551989855e-01       3.243242013332e+01 
       3.793683851960e-01       2.976226809356e+01 
       3.943220029303e-01       2.726553323239e+01 
       4.103784416292e-01       2.490768742548e+01 
       4.277508470824e-01       2.264873454157e+01 
       4.467262431007e-01       2.049949461145e+01 
       4.677031020806e-01       1.844315949069e+01 
       4.912553038078e-01       1.645732602919e+01 
       5.182471589776e-01       1.453108338014e+01 
       5.500540709482e-01       1.263987381657e+01 
       5.890186176358e-01       1.075916936575e+01 
       6.394709879124e-01       8.856422343204e+00 
       7.101424824520e-01       6.897069006675e+00 
       8.192735454486e-01       4.888035736796e+00 
       9.958845335179e-01       3.037721459922e+00 
       1.248745141026e+00       1.737281072975e+00 
       1.571932871930e+00       9.767368575418e-01 
       1.978945378887e+00       5.452718078996e-01 
       2.491344625235e+00       3.025142224812e-01 
       3.136417058245e+00       1.668824367002e-01 
       3.948515136609e+00       9.158284260817e-02 
       4.970886044331e+00       5.001951355361e-02 
       6.257974760341e+00       2.719868995162e-02 
       7.878323452160e+00       1.472925129156e-02 
       9.918221596258e+00       7.946196192103e-03 
       1.248630120733e+01       4.271546094139e-03 
