# Matter power spectrum P(k) at redshift z=1
# for k=2.03477e-07 to 10.2124 h/Mpc,
# number of wavenumbers equal to 139
#    1:k (h/Mpc)              2:P (Mpc/h)^3        
       2.034766374665e-07       5.872437179911e-01 
       2.561619096130e-07       7.314562905254e-01 
       3.224887375455e-07       9.110839131862e-01 
       4.059892667135e-07       1.134823648339e+00 
       5.111102047813e-07       1.413508341419e+00 
       6.434496250265e-07       1.760631116458e+00 
       8.100550841552e-07       2.192998673247e+00 
       1.019798930396e-06       2.731545017561e+00 
       1.283850788396e-06       3.402345020892e+00 
       1.616272382464e-06       4.237876881238e+00 
       2.034766374665e-06       5.278594601960e+00 
       2.561619096130e-06       6.574886616820e+00 
       3.224887375455e-06       8.189515368325e+00 
       4.059892667135e-06       1.020065591224e+01 
       5.111102047813e-06       1.270568059082e+01 
       6.434496250265e-06       1.582587284949e+01 
       8.100550841552e-06       1.971229809608e+01 
       1.019798930396e-05       2.455311522015e+01 
       1.283850788396e-05       3.058268149861e+01 
       1.616272382464e-05       3.809288920617e+01 
       2.034766374665e-05       4.744727788159e+01 
       2.561619096130e-05       5.909859575862e+01 
       3.224887375455e-05       7.361064136756e+01 
       4.059892667135e-05       9.168540486684e+01 
       5.111102047813e-05       1.141967484833e+02 
       6.434496250265e-05       1.422321096298e+02 
       8.100550841552e-05       1.771439574755e+02 
       1.019798930396e-04       2.206129299300e+02 
       1.283850788396e-04       2.747246106044e+02 
       1.616272382464e-04       3.420615475019e+02 
       2.034766374665e-04       4.258109472990e+02 
       2.561619096130e-04       5.298857862664e+02 
       3.224887375455e-04       6.590518103734e+02 
       4.059892667135e-04       8.190439671927e+02 
       5.111102047813e-04       1.016643339121e+03 
       6.434496250265e-04       1.259673593865e+03 
       8.100550841552e-04       1.556872844045e+03 
       1.019798930396e-03       1.917598726548e+03 
       1.283850788396e-03       2.351267605819e+03 
       1.616272382464e-03       2.866246186333e+03 
       2.034766374665e-03       3.467940400565e+03 
       2.561619096130e-03       4.156284886443e+03 
       3.224887375455e-03       4.922632510961e+03 
       4.059892667135e-03       5.746417748851e+03 
       5.111102047813e-03       6.591992918513e+03 
       6.434496250265e-03       7.406655360543e+03 
       8.100550841552e-03       8.120865292547e+03 
       1.019798930396e-02       8.651035881200e+03 
       1.283850788396e-02       8.905888627993e+03 
       1.616272382464e-02       8.798287799674e+03 
       2.034766374224e-02       8.267645584438e+03 
       2.561618268039e-02       7.319862115638e+03 
       3.224647724316e-02       6.079730752202e+03 
       4.044864194891e-02       4.822170832100e+03 
       4.879384730521e-02       3.945294281873e+03 
       5.483999038451e-02       3.504396784245e+03 
       5.955141287910e-02       3.229643064472e+03 
       6.363287552259e-02       3.018682133716e+03 
       6.737499965327e-02       2.836496895614e+03 
       7.092076254067e-02       2.668538255682e+03 
       7.435154197652e-02       2.508435626606e+03 
       7.771876426934e-02       2.353801726990e+03 
       8.105759104031e-02       2.204410186834e+03 
       8.439361265169e-02       2.061215390995e+03 
       8.774643941635e-02       1.925722960674e+03 
       9.113177151108e-02       1.799537369285e+03 
       9.456266179194e-02       1.684024252055e+03 
       9.805032245565e-02       1.580066768451e+03 
       1.016046601212e-01       1.487908615126e+03 
       1.052346419971e-01       1.407079550686e+03 
       1.089485529855e-01       1.336400253992e+03 
       1.127541800392e-01       1.274065986685e+03 
       1.166589465885e-01       1.217810182912e+03 
       1.206700118215e-01       1.165147937243e+03 
       1.247943446725e-01       1.113687823354e+03 
       1.290387792712e-01       1.061478071257e+03 
       1.334100566030e-01       1.007325252114e+03 
       1.379148558298e-01       9.510034157193e+02 
       1.425598178499e-01       8.932776188052e+02 
       1.473515631053e-01       8.357044628722e+02 
       1.522967052572e-01       7.802382671685e+02 
       1.574018620996e-01       7.287364463565e+02 
       1.626736649147e-01       6.824937451344e+02 
       1.681187673661e-01       6.419266714677e+02 
       1.737438549604e-01       6.064882677838e+02 
       1.795556560652e-01       5.748396914877e+02 
       1.855609554448e-01       5.452491808876e+02 
       1.917666112587e-01       5.161235651160e+02 
       1.981795764554e-01       4.865076994526e+02 
       2.048069254883e-01       4.563548054571e+02 
       2.116558872790e-01       4.264338893667e+02 
       2.187338853600e-01       3.979014360345e+02 
       2.260485861583e-01       3.717371779411e+02 
       2.336079564253e-01       3.483125774244e+02 
       2.414203309054e-01       3.272856577356e+02 
       2.494944914695e-01       3.078501397639e+02 
       2.578397591375e-01       2.891929182255e+02 
       2.664661006956e-01       2.709023777596e+02 
       2.753842520132e-01       2.530923322863e+02 
       2.846058606939e-01       2.361868303534e+02 
       2.941436514148e-01       2.205441812621e+02 
       3.040116182577e-01       2.061986165523e+02 
       3.142252495927e-01       1.928838853582e+02 
       3.248017927386e-01       1.802744446338e+02 
       3.357605678320e-01       1.682189268164e+02 
       3.471233432914e-01       1.567748436584e+02 
       3.589147892486e-01       1.460542554608e+02 
       3.711630307581e-01       1.360640112967e+02 
       3.839003301127e-01       1.266962929426e+02 
       3.971639381245e-01       1.178409096247e+02 
       4.109971692159e-01       1.094659111935e+02 
       4.254507768366e-01       1.015834742981e+02 
       4.405847376323e-01       9.417630479221e+01 
       4.564706006929e-01       8.719098285749e+01 
       4.731946316550e-01       8.058497186134e+01 
       4.908620967240e-01       7.434082207082e+01 
       5.096032173570e-01       6.843768046561e+01 
       5.295816341188e-01       6.284232235433e+01 
       5.510067450421e-01       5.752610550390e+01 
       5.741522187934e-01       5.246513033589e+01 
       5.993847116346e-01       4.762927716935e+01 
       6.272101653657e-01       4.298830080909e+01 
       6.583519002969e-01       3.850951534668e+01 
       6.938895390548e-01       3.415417718117e+01 
       7.355221412959e-01       2.987688414223e+01 
       7.861042568972e-01       2.562080236433e+01 
       8.508281929119e-01       2.131486077692e+01 
       9.400058426714e-01       1.687526137474e+01 
       1.075267862616e+00       1.227524571230e+01 
       1.294661683016e+00       7.866612475273e+00 
       1.618897380692e+00       4.568602537468e+00 
       2.037649097677e+00       2.590351880848e+00 
       2.565244809502e+00       1.457087239351e+00 
       3.229451873543e+00       8.141086069899e-01 
       4.065639029768e+00       4.520767382033e-01 
       5.118336289757e+00       2.496361009014e-01 
       6.443603621284e+00       1.371429335475e-01 
       8.112016342363e+00       7.498785775811e-02 
       1.021242351429e+01       4.082437154390e-02 
