# Matter power spectrum P(k) at redshift z=1.5
# for k=2.29956e-07 to 11.5405 h/Mpc,
# number of wavenumbers equal to 139
#    1:k (h/Mpc)              2:P (Mpc/h)^3        
       2.299563341340e-07       1.792503840705e-01 
       2.894978726443e-07       2.227460927769e-01 
       3.644562285323e-07       2.767961814599e-01 
       4.588232075860e-07       3.439617059041e-01 
       5.776241955509e-07       4.274251705932e-01 
       7.271857782462e-07       5.311413253976e-01 
       9.154726553295e-07       6.600245532466e-01 
       1.152511789597e-06       8.201817282457e-01 
       1.450926379316e-06       1.019201577213e+00 
       1.826608089563e-06       1.266514255488e+00 
       2.299563341340e-06       1.573838174357e+00 
       2.894978726443e-06       1.955735250451e+00 
       3.644562285323e-06       2.430300886394e+00 
       4.588232075860e-06       3.020021371425e+00 
       5.776241955509e-06       3.752839320668e+00 
       7.271857782462e-06       4.663477626010e+00 
       9.154726553295e-06       5.795084621617e+00 
       1.152511789597e-05       7.201278369106e+00 
       1.450926379316e-05       8.948686819696e+00 
       1.826608089563e-05       1.112010401859e+01 
       2.299563341340e-05       1.381841150149e+01 
       2.894978726443e-05       1.717144991302e+01 
       3.644562285323e-05       2.133807014702e+01 
       4.588232075860e-05       2.651564770885e+01 
       5.776241955509e-05       3.294941042229e+01 
       7.271857782462e-05       4.094400979228e+01 
       9.154726553295e-05       5.087786141833e+01 
       1.152511789597e-04       6.322088921190e+01 
       1.450926379316e-04       7.855642675698e+01 
       1.826608089563e-04       9.760814414919e+01 
       2.299563341340e-04       1.212729502758e+02 
       2.894978726443e-04       1.506608117585e+02 
       3.644562285323e-04       1.871422296425e+02 
       4.588232075860e-04       2.324035723456e+02 
       5.776241955509e-04       2.885094103729e+02 
       7.271857782462e-04       3.579693843676e+02 
       9.154726553295e-04       4.438052138104e+02 
       1.152511789597e-03       5.496112921852e+02 
       1.450926379316e-03       6.795966504741e+02 
       1.826608089563e-03       8.385662054522e+02 
       2.299563341340e-03       1.031818266085e+03 
       2.894978726443e-03       1.264831491007e+03 
       3.644562285323e-03       1.542720582931e+03 
       4.588232075860e-03       1.869316811136e+03 
       5.776241955509e-03       2.245670988898e+03 
       7.271857782462e-03       2.667791190159e+03 
       9.154726553295e-03       3.123454664296e+03 
       1.152511789597e-02       3.587963946597e+03 
       1.450926379316e-02       4.019505430488e+03 
       1.826608089438e-02       4.356589733374e+03 
       2.299563029695e-02       4.524126278126e+03 
       2.894865086778e-02       4.459361114056e+03 
       3.635937218090e-02       4.166736473797e+03 
       4.426403854913e-02       3.808033576537e+03 
       5.012123670066e-02       3.579482793372e+03 
       5.459960189720e-02       3.432774712608e+03 
       5.843774037311e-02       3.322099293906e+03 
       6.193609037665e-02       3.228480533990e+03 
       6.523900461326e-02       3.142371905988e+03 
       6.842726355095e-02       3.058244809808e+03 
       7.155128820242e-02       2.972727587923e+03 
       7.464522513518e-02       2.883863825741e+03 
       7.773373458799e-02       2.790775246897e+03 
       8.083559210861e-02       2.693477148419e+03 
       8.396574644480e-02       2.592738593546e+03 
       8.713656628283e-02       2.489939387419e+03 
       9.035863211716e-02       2.386902135994e+03 
       9.364125906129e-02       2.285694941250e+03 
       9.699285323233e-02       2.188410781688e+03 
       1.004211611881e-01       2.096938260623e+03 
       1.039334483247e-01       2.012741257938e+03 
       1.075366286939e-01       1.936667698200e+03 
       1.112373607342e-01       1.868807519208e+03 
       1.150421185430e-01       1.808420310000e+03 
       1.189572452589e-01       1.753955062073e+03 
       1.229889931620e-01       1.703184348261e+03 
       1.271435538202e-01       1.653469411892e+03 
       1.314270807621e-01       1.602152524124e+03 
       1.358457065938e-01       1.547037451299e+03 
       1.404055561033e-01       1.486871310398e+03 
       1.451127566452e-01       1.421701706701e+03 
       1.499734469385e-01       1.352977355082e+03 
       1.549937853029e-01       1.283307844337e+03 
       1.601799582958e-01       1.215894010824e+03 
       1.655381906671e-01       1.153749106160e+03 
       1.710747575272e-01       1.098908227300e+03 
       1.767959996030e-01       1.051839140677e+03 
       1.827083424487e-01       1.011234335738e+03 
       1.888183204682e-01       9.743022366287e+02 
       1.951326066067e-01       9.375778164372e+02 
       2.016580485743e-01       8.980995965255e+02 
       2.084017124835e-01       8.545639940144e+02 
       2.153709348290e-01       8.079183769700e+02 
       2.225733838048e-01       7.609929799996e+02 
       2.300171310758e-01       7.172302919691e+02 
       2.377107352927e-01       6.790789630157e+02 
       2.456633388904e-01       6.468294615090e+02 
       2.538847800610e-01       6.184871956423e+02 
       2.623857222657e-01       5.908431428239e+02 
       2.711778042913e-01       5.613101780705e+02 
       2.802738147009e-01       5.294890412241e+02 
       2.896878956528e-01       4.973331020098e+02 
       2.994357825405e-01       4.676530958893e+02 
       3.095350878784e-01       4.420111602387e+02 
       3.200056404821e-01       4.196013298909e+02 
       3.308698945370e-01       3.980241427225e+02 
       3.421534279745e-01       3.754134932916e+02 
       3.538855562305e-01       3.520656771428e+02 
       3.661000967726e-01       3.299075719905e+02 
       3.788363329991e-01       3.102883435862e+02 
       3.921402451828e-01       2.925211503340e+02 
       4.060661041468e-01       2.748760754252e+02 
       4.206785652903e-01       2.568287296415e+02 
       4.360554646927e-01       2.395410170821e+02 
       4.522916193188e-01       2.238523510505e+02 
       4.695040942839e-01       2.089529973394e+02 
       4.878396658271e-01       1.939633023403e+02 
       5.074856613283e-01       1.794565219237e+02 
       5.286861570042e-01       1.658952056263e+02 
       5.517669831171e-01       1.525580168701e+02 
       5.771758133061e-01       1.394049858933e+02 
       6.055493433236e-01       1.267359872411e+02 
       6.378318783664e-01       1.140697087831e+02 
       6.754979161701e-01       1.015064655740e+02 
       7.210008943872e-01       8.873225916279e+01 
       7.787523559533e-01       7.557008062880e+01 
       8.574123937776e-01       6.167063747898e+01 
       9.751227633417e-01       4.678543330615e+01 
       1.165582722136e+00       3.164244654008e+01 
       1.453397977282e+00       1.927924183518e+01 
       1.829055155198e+00       1.136333967946e+01 
       2.302637315667e+00       6.615879260195e+00 
       2.898848619078e+00       3.812374638408e+00 
       3.649434191499e+00       2.176610832300e+00 
       4.594365442348e+00       1.232355197121e+00 
       5.783963406441e+00       6.924778935917e-01 
       7.281578513257e+00       3.864505675827e-01 
       9.166964228313e+00       2.143218915859e-01 
       1.154052421603e+01       1.181837401823e-01 
