# Matter power spectrum P(k) at redshift z=1
# for k=1.9844e-07 to 12.538 h/Mpc,
# number of wavenumbers equal to 140
#    1:k (h/Mpc)              2:P (Mpc/h)^3        
       1.984404819527e-07       5.934211183805e-01 
       2.498217654590e-07       7.386402976020e-01 
       3.145069689556e-07       9.193968197982e-01 
       3.959408154046e-07       1.144387213560e+00 
       4.984599540793e-07       1.424436179934e+00 
       6.275239029522e-07       1.773017388384e+00 
       7.900057879348e-07       2.206901719398e+00 
       9.945583618956e-07       2.746964140989e+00 
       1.252074795303e-06       3.419188039202e+00 
       1.576268777274e-06       4.255915321612e+00 
       1.984404819527e-06       5.297402436957e+00 
       2.498217654590e-06       6.593757165232e+00 
       3.145069689556e-06       8.207349359019e+00 
       3.959408154046e-06       1.021581159545e+01 
       4.984599540793e-06       1.271577407136e+01 
       6.275239029522e-06       1.582751336639e+01 
       7.900057879348e-06       1.970073858703e+01 
       9.945583618956e-06       2.452179299756e+01 
       1.252074795303e-05       3.052261707420e+01 
       1.576268777274e-05       3.799190311465e+01 
       1.984404819527e-05       4.728897594118e+01 
       2.498217654590e-05       5.886106329156e+01 
       3.145069689556e-05       7.326477847601e+01 
       3.959408154046e-05       9.119283248105e+01 
       4.984599540793e-05       1.135072283481e+02 
       6.275239029522e-05       1.412804713838e+02 
       7.900057879348e-05       1.758466531772e+02 
       9.945583618956e-05       2.188646231342e+02 
       1.252074795303e-04       2.723958114523e+02 
       1.576268777274e-04       3.389995285340e+02 
       1.984404819527e-04       4.218485691539e+02 
       2.498217654590e-04       5.248673880841e+02 
       3.145069689556e-04       6.528934933220e+02 
       3.959408154046e-04       8.118593880660e+02 
       4.984599540793e-04       1.008986944206e+03 
       6.275239029522e-04       1.252979045901e+03 
       7.900057879348e-04       1.554186262579e+03 
       9.945583618956e-04       1.924715477881e+03 
       1.252074795303e-03       2.378406228061e+03 
       1.576268777274e-03       2.930498318202e+03 
       1.984404819527e-03       3.596761337936e+03 
       2.498217654590e-03       4.391920262714e+03 
       3.145069689556e-03       5.327131185420e+03 
       3.959408154046e-03       6.406100205258e+03 
       4.984599540793e-03       7.619443620128e+03 
       6.275239029522e-03       8.937157723403e+03 
       7.900057879348e-03       1.029921080467e+04 
       9.945583618956e-03       1.160494448338e+04 
       1.252074795303e-02       1.270466425509e+04 
       1.576268777110e-02       1.340288982884e+04 
       1.984404451916e-02       1.349400793279e+04 
       2.498094257138e-02       1.285842864379e+04 
       3.136321032845e-02       1.162682782670e+04 
       3.806260968125e-02       1.039613693382e+04 
       4.298070110833e-02       9.673077348921e+03 
       4.676672647756e-02       9.213875170108e+03 
       5.002426091584e-02       8.864882895426e+03 
       5.299978325215e-02       8.565835832004e+03 
       5.581273187657e-02       8.287736227758e+03 
       5.853035477006e-02       8.014810655410e+03 
       6.119481367688e-02       7.738347780963e+03 
       6.383475983906e-02       7.454175942157e+03 
       6.647094224824e-02       7.161427429599e+03 
       6.911919521828e-02       6.861774250383e+03 
       7.179215076966e-02       6.558810469289e+03 
       7.450027865243e-02       6.257448810980e+03 
       7.725254826981e-02       5.963288503316e+03 
       8.005686643111e-02       5.681959381381e+03 
       8.292037617022e-02       5.418476271558e+03 
       8.584966613117e-02       5.176647676884e+03 
       8.885092046005e-02       4.958586912132e+03 
       9.193002795865e-02       4.764371430829e+03 
       9.509266262172e-02       4.591895039791e+03 
       9.834434361893e-02       4.436959574158e+03 
       1.016904802302e-01       4.293652729657e+03 
       1.051364056034e-01       4.155044911494e+03 
       1.086874021331e-01       4.014188927095e+03 
       1.123487205480e-01       3.865321404888e+03 
       1.161255943275e-01       3.705050656795e+03 
       1.200232507498e-01       3.533225497981e+03 
       1.240469196688e-01       3.353169448188e+03 
       1.282018409801e-01       3.171086469364e+03 
       1.324932716488e-01       2.994677560203e+03 
       1.369264931171e-01       2.831268107482e+03 
       1.415068198740e-01       2.685924787912e+03 
       1.462396099505e-01       2.560066323290e+03 
       1.511302780856e-01       2.450973894761e+03 
       1.561843123033e-01       2.352441555034e+03 
       1.614072946311e-01       2.256578031531e+03 
       1.668049266928e-01       2.156405137844e+03 
       1.723830609107e-01       2.048420681770e+03 
       1.781477380749e-01       1.933990040801e+03 
       1.841052320684e-01       1.818712608067e+03 
       1.902621026078e-01       1.709847030910e+03 
       1.966252569541e-01       1.612945297280e+03 
       2.032020217037e-01       1.529314687400e+03 
       2.100002259878e-01       1.455553800490e+03 
       2.170282977085e-01       1.385485212728e+03 
       2.242953748550e-01       1.313640524153e+03 
       2.318114344928e-01       1.238378399293e+03 
       2.395874427540e-01       1.162553353552e+03 
       2.476355301249e-01       1.091130636133e+03 
       2.559691976115e-01       1.027440334962e+03 
       2.646035610627e-01       9.708688610247e+02 
       2.735556432107e-01       9.177101465894e+02 
       2.828447260518e-01       8.644626737920e+02 
       2.924927803747e-01       8.107292068426e+02 
       3.025249950151e-01       7.590103572996e+02 
       3.129704364942e-01       7.116756375351e+02 
       3.238628811728e-01       6.684159210855e+02 
       3.352418786313e-01       6.269397590732e+02 
       3.471541293468e-01       5.858975083035e+02 
       3.596552962502e-01       5.462295701439e+02 
       3.728124256226e-01       5.092439982903e+02 
       3.867072403049e-01       4.744904618470e+02 
       4.014407088149e-01       4.407198989044e+02 
       4.171395264328e-01       4.079675713055e+02 
       4.339655410640e-01       3.768865459198e+02 
       4.521298584701e-01       3.470564970711e+02 
       4.719146541019e-01       3.179653570681e+02 
       4.937082116753e-01       2.898408711550e+02 
       5.180637742270e-01       2.623915317002e+02 
       5.458037148530e-01       2.353308527405e+02 
       5.782156889395e-01       2.084610031281e+02 
       6.174495533725e-01       1.813508710516e+02 
       6.673867612959e-01       1.534964598597e+02 
       7.356786330963e-01       1.242461765877e+02 
       8.383669149230e-01       9.318416029780e+01 
       1.004724958121e+00       6.209212700019e+01 
       1.254177849762e+00       3.735737571088e+01 
       1.578445287374e+00       2.181031396658e+01 
       1.987140486444e+00       1.259370522363e+01 
       2.501661648155e+00       7.204415420884e+00 
       3.149405420572e+00       4.086926212509e+00 
       3.964866516000e+00       2.300888541007e+00 
       4.991471211364e+00       1.286474437277e+00 
       6.283889950226e+00       7.147969802212e-01 
       7.910948743257e+00       3.948908492848e-01 
       9.959294404287e+00       2.170162966160e-01 
       1.253800880910e+01       1.186890402198e-01 
