# Matter power spectrum P(k) at redshift z=0.5
# for k=1.80555e-07 to 11.4072 h/Mpc,
# number of wavenumbers equal to 140
#    1:k (h/Mpc)              2:P (Mpc/h)^3        
       1.805546107108e-07       9.978787318817e-01 
       2.273047876404e-07       1.249648194092e+00 
       2.861597733830e-07       1.564940265823e+00 
       3.602538105451e-07       1.959781996744e+00 
       4.535326767909e-07       2.454244134362e+00 
       5.709638118911e-07       3.073461366815e+00 
       7.188008520046e-07       3.848909975824e+00 
       9.049166586079e-07       4.820007844854e+00 
       1.139222577077e-06       6.036118151519e+00 
       1.434196251972e-06       7.559058589542e+00 
       1.805546107108e-06       9.466243659020e+00 
       2.273047876404e-06       1.185461972749e+01 
       2.861597733830e-06       1.484559284187e+01 
       3.602538105451e-06       1.859119968327e+01 
       4.535326767909e-06       2.328183514928e+01 
       5.709638118911e-06       2.915592898662e+01 
       7.188008520046e-06       3.651206257555e+01 
       9.049166586079e-06       4.572414024005e+01 
       1.139222577077e-05       5.726038321252e+01 
       1.434196251972e-05       7.170710565736e+01 
       1.805546107108e-05       8.979846923423e+01 
       2.273047876404e-05       1.124537047207e+02 
       2.861597733830e-05       1.408236451675e+02 
       3.602538105451e-05       1.763488417202e+02 
       4.535326767909e-05       2.208320297608e+02 
       5.709638118911e-05       2.765282605741e+02 
       7.188008520046e-05       3.462565541287e+02 
       9.049166586079e-05       4.335373247773e+02 
       1.139222577077e-04       5.427597918101e+02 
       1.434196251972e-04       6.793825409315e+02 
       1.805546107108e-04       8.501673165615e+02 
       2.273047876404e-04       1.063439317214e+03 
       2.861597733830e-04       1.329354513244e+03 
       3.602538105451e-04       1.660134230120e+03 
       4.535326767909e-04       2.070202057059e+03 
       5.709638118911e-04       2.576139568907e+03 
       7.188008520046e-04       3.196376189520e+03 
       9.049166586079e-04       3.950493211927e+03 
       1.139222577077e-03       4.857789991288e+03 
       1.434196251972e-03       5.934482605241e+03 
       1.805546107108e-03       7.189389887048e+03 
       2.273047876404e-03       8.618191092861e+03 
       2.861597733830e-03       1.019654818947e+04 
       3.602538105451e-03       1.187344736872e+04 
       4.535326767909e-03       1.356433599143e+04 
       5.709638118911e-03       1.514740434374e+04 
       7.188008520046e-03       1.646394004055e+04 
       9.049166586079e-03       1.732284745213e+04 
       1.139222577077e-02       1.751172356134e+04 
       1.434196251972e-02       1.682216247902e+04 
       1.805546107002e-02       1.511018010728e+04 
       2.273047602734e-02       1.242183723182e+04 
       2.861494773274e-02       9.169314876382e+03 
       3.594520298938e-02       6.193630929966e+03 
       4.380943483244e-02       4.447557600587e+03 
       4.965925392613e-02       3.840825031221e+03 
       5.412052223808e-02       3.605444311104e+03 
       5.793825885541e-02       3.478913792300e+03 
       6.141516171157e-02       3.378479188021e+03 
       6.469620163636e-02       3.269445247182e+03 
       6.786231707507e-02       3.136031700732e+03 
       7.096394247444e-02       2.972762620499e+03 
       7.403518922721e-02       2.781032276443e+03 
       7.710066640348e-02       2.567099285556e+03 
       8.017909420855e-02       2.340409160262e+03 
       8.328536618322e-02       2.111958229241e+03 
       8.643179737011e-02       1.892728642188e+03 
       8.962891647890e-02       1.692344725465e+03 
       9.288598856043e-02       1.518109950954e+03 
       9.621137111097e-02       1.374510083288e+03 
       9.961276320524e-02       1.263147693876e+03 
       1.030973836141e-01       1.182961084135e+03 
       1.066721003822e-01       1.130533422855e+03 
       1.103435263632e-01       1.100357381507e+03 
       1.141180903351e-01       1.085075655638e+03 
       1.180020902620e-01       1.075893709367e+03 
       1.220017333016e-01       1.063435071738e+03 
       1.261231658826e-01       1.039177118851e+03 
       1.303724963242e-01       9.972682156835e+02 
       1.347558119117e-01       9.361400529551e+02 
       1.392791919628e-01       8.591599564063e+02 
       1.439487181735e-01       7.738248437172e+02 
       1.487704833702e-01       6.896367192986e+02 
       1.537505996858e-01       6.154563513586e+02 
       1.588952071175e-01       5.573418804413e+02 
       1.642104833757e-01       5.174679619584e+02 
       1.697026559146e-01       4.940514787634e+02 
       1.753780170114e-01       4.819101796350e+02 
       1.812429427559e-01       4.735807535462e+02 
       1.873039168012e-01       4.612709575889e+02 
       1.935675597247e-01       4.395355784601e+02 
       2.000406648581e-01       4.075424930828e+02 
       2.067302414600e-01       3.693468936950e+02 
       2.136435661506e-01       3.316782640695e+02 
       2.207882435974e-01       3.005618386003e+02 
       2.281722775544e-01       2.787667457814e+02 
       2.358041535338e-01       2.650846717048e+02 
       2.436929346314e-01       2.552922439497e+02 
       2.518483723760e-01       2.443792213416e+02 
       2.602810349407e-01       2.293046283878e+02 
       2.690024556849e-01       2.106535497692e+02 
       2.780253058312e-01       1.917688494201e+02 
       2.873635961914e-01       1.760199656754e+02 
       2.970329143171e-01       1.644803023744e+02 
       3.070507053930e-01       1.555826616915e+02 
       3.174366077905e-01       1.466963709283e+02 
       3.282128576890e-01       1.363708289520e+02 
       3.394047819411e-01       1.253398538745e+02 
       3.510414049237e-01       1.153544958286e+02 
       3.631562042997e-01       1.072285835753e+02 
       3.757880636523e-01       1.002088150534e+02 
       3.889824887536e-01       9.312283630771e+01 
       4.027931818349e-01       8.578922528422e+01 
       4.172841095411e-01       7.893285893638e+01 
       4.325322633840e-01       7.293386727004e+01 
       4.486314102330e-01       6.736279193524e+01 
       4.656972887325e-01       6.183920488819e+01 
       4.838749687940e-01       5.657948323957e+01 
       5.033495362034e-01       5.175961811821e+01 
       5.243620493648e-01       4.715693649335e+01 
       5.472341569854e-01       4.271080608984e+01 
       5.724075370805e-01       3.851280301749e+01 
       6.005099288976e-01       3.446304454843e+01 
       6.324715771924e-01       3.054192778564e+01 
       6.697435312232e-01       2.671425154854e+01 
       7.147371495092e-01       2.292800307324e+01 
       7.717817192362e-01       1.912191769431e+01 
       8.493625034587e-01       1.522640898645e+01 
       9.652478644330e-01       1.120529356691e+01 
       1.152650174897e+00       7.291229137604e+00 
       1.436652396191e+00       4.249302644920e+00 
       1.807931724008e+00       2.401852794729e+00 
       2.276043860223e+00       1.347485237918e+00 
       2.865369440671e+00       7.514463746335e-01 
       3.607286403037e+00       4.167681245009e-01 
       4.541304520403e+00       2.299889313371e-01 
       5.717163663431e+00       1.263301654503e-01 
       7.197482619279e+00       6.909472558185e-02 
       9.061093770357e+00       3.763996806333e-02 
       1.140724120615e+01       2.042807838104e-02 
