# Matter power spectrum P(k) at redshift z=2.5
# for k=2.21946e-07 to 11.1353 h/Mpc,
# number of wavenumbers equal to 139
#    1:k (h/Mpc)              2:P (Mpc/h)^3        
       2.219463265628e-07       7.355600736737e-02 
       2.794138705643e-07       9.213998715097e-02 
       3.517612220612e-07       1.154192230987e-01 
       4.428411413366e-07       1.445799752136e-01 
       5.575039662166e-07       1.811082127550e-01 
       7.018559102461e-07       2.268653362772e-01 
       8.835842408268e-07       2.841830302453e-01 
       1.112366654238e-06       3.559820805378e-01 
       1.400386648252e-06       4.459212109072e-01 
       1.762982337822e-06       5.585835233488e-01 
       2.219463265628e-06       6.997100404991e-01 
       2.794138705643e-06       8.764922528971e-01 
       3.517612220612e-06       1.097938574289e+00 
       4.428411413366e-06       1.375333378189e+00 
       5.575039662166e-06       1.722811996152e+00 
       7.018559102461e-06       2.158080970286e+00 
       8.835842408268e-06       2.703320230233e+00 
       1.112366654238e-05       3.386313115863e+00 
       1.400386648252e-05       4.241861728995e+00 
       1.762982337822e-05       5.313559513724e+00 
       2.219463265628e-05       6.656010983275e+00 
       2.794138705643e-05       8.337610872187e+00 
       3.517612220612e-05       1.044402268241e+01 
       4.428411413366e-05       1.308253060959e+01 
       5.575039662166e-05       1.638748011781e+01 
       7.018559102461e-05       2.052707157547e+01 
       8.835842408268e-05       2.571182764229e+01 
       1.112366654238e-04       3.220511572265e+01 
       1.400386648252e-04       4.033616272571e+01 
       1.762982337822e-04       5.051603162438e+01 
       2.219463265628e-04       6.325699738220e+01 
       2.794138705643e-04       7.919558684017e+01 
       3.517612220612e-04       9.911909728075e+01 
       4.428411413366e-04       1.239944695418e+02 
       5.575039662166e-04       1.549967124177e+02 
       7.018559102461e-04       1.935315647549e+02 
       8.835842408268e-04       2.412443248041e+02 
       1.112366654238e-03       3.000054876519e+02 
       1.400386648252e-03       3.718645876259e+02 
       1.762982337822e-03       4.589562834171e+02 
       2.219463265628e-03       5.633063629267e+02 
       2.794138705643e-03       6.864653729972e+02 
       3.517612220612e-03       8.289977110893e+02 
       4.428411413366e-03       9.898337217242e+02 
       5.575039662166e-03       1.165447866839e+03 
       7.018559102461e-03       1.348980106150e+03 
       8.835842408268e-03       1.529442094157e+03 
       1.112366654238e-02       1.691177875916e+03 
       1.400386648252e-02       1.813982691137e+03 
       1.762982337820e-02       1.874668805437e+03 
       2.219463251163e-02       1.851693296719e+03 
       2.794127114000e-02       1.734926891356e+03 
       3.515939324958e-02       1.540001494374e+03 
       4.370612788243e-02       1.324683464012e+03 
       5.099674847621e-02       1.179693086659e+03 
       5.626963080614e-02       1.094568947216e+03 
       6.060420513938e-02       1.032850020802e+03 
       6.446792337769e-02       9.815499087229e+02 
       6.806801425328e-02       9.354194723821e+02 
       7.151368061843e-02       8.920027462446e+02 
       7.487019597167e-02       8.501203511496e+02 
       7.818033500294e-02       8.092838844321e+02 
       8.147418747220e-02       7.694172983695e+02 
       8.477416794309e-02       7.306954787546e+02 
       8.809779361621e-02       6.934322066369e+02 
       9.145932751450e-02       6.579924400324e+02 
       9.487080212728e-02       6.247193373660e+02 
       9.834268456561e-02       5.938747451455e+02 
       1.018843240475e-01       5.655934236190e+02 
       1.055042617134e-01       5.398533419013e+02 
       1.092104502539e-01       5.164643931383e+02 
       1.130104126111e-01       4.950774043385e+02 
       1.169113583899e-01       4.752152665842e+02 
       1.209202702057e-01       4.563263561648e+02 
       1.250439682162e-01       4.378571187443e+02 
       1.292891585512e-01       4.193356749097e+02 
       1.336624697152e-01       4.004524365375e+02 
       1.381704799568e-01       3.811191175631e+02 
       1.428197378811e-01       3.614874137563e+02 
       1.476167781063e-01       3.419156567405e+02 
       1.525681334442e-01       3.228847072141e+02 
       1.576803448808e-01       3.048801333807e+02 
       1.629599704917e-01       2.882691575741e+02 
       1.684135943457e-01       2.732052311949e+02 
       1.740478363922e-01       2.595874652588e+02 
       1.798693642962e-01       2.470902024951e+02 
       1.858849081630e-01       2.352607197212e+02 
       1.921012790794e-01       2.236617500797e+02 
       1.985253923899e-01       2.120143136860e+02 
       2.051642966221e-01       2.002851429315e+02 
       2.120252089750e-01       1.886770267461e+02 
       2.191155583036e-01       1.775205280178e+02 
       2.264430365615e-01       1.671144191762e+02 
       2.340156597289e-01       1.575899222145e+02 
       2.418418393538e-01       1.488632218452e+02 
       2.499304659921e-01       1.406970900860e+02 
       2.582910060621e-01       1.328368645962e+02 
       2.669336139517e-01       1.251435680362e+02 
       2.758692616635e-01       1.176455214121e+02 
       2.851098888794e-01       1.104802176005e+02 
       2.946685771294e-01       1.037736403103e+02 
       3.045597528059e-01       9.754669829555e+01 
       3.147994251653e-01       9.171280727681e+01 
       3.254054673124e-01       8.615654021859e+01 
       3.363979506339e-01       8.081984095058e+01 
       3.477995464578e-01       7.572238586435e+01 
       3.596360132122e-01       7.090910484113e+01 
       3.719367935170e-01       6.638736389483e+01 
       3.847357542086e-01       6.211770652822e+01 
       3.980721143787e-01       5.805605163748e+01 
       4.119916238124e-01       5.418916957892e+01 
       4.265480794282e-01       5.052385609089e+01 
       4.418053047548e-01       4.705537438346e+01 
       4.578397741697e-01       4.376222268501e+01 
       4.747441514071e-01       4.062656526884e+01 
       4.926321511090e-01       3.764182435756e+01 
       5.116453591970e-01       3.479964865557e+01 
       5.319630291665e-01       3.208527788562e+01 
       5.538165339943e-01       2.948599290870e+01 
       5.775113493892e-01       2.699080668933e+01 
       6.034616984213e-01       2.458560477518e+01 
       6.322474503340e-01       2.225496682195e+01 
       6.647122082361e-01       1.998188682896e+01 
       7.021423449123e-01       1.774534801787e+01 
       7.466164695125e-01       1.551911350450e+01 
       8.017418578313e-01       1.326830806893e+01 
       8.743319525199e-01       1.094640670767e+01 
       9.783728240592e-01       8.504922918394e+00 
       1.142516013208e+00       5.976076884000e+00 
       1.404458335800e+00       3.706466161673e+00 
       1.764869747383e+00       2.163554496784e+00 
       2.221775132478e+00       1.245914579124e+00 
       2.797048922150e+00       7.114006753757e-01 
       3.521275965986e+00       4.031160374406e-01 
       4.433023795520e+00       2.268530069945e-01 
       5.580846307268e+00       1.268615396790e-01 
       7.025869235538e+00       7.053852558101e-02 
       8.845045320561e+00       3.901627894050e-02 
       1.113525232253e+01       2.147709563707e-02 
