# Matter power spectrum P(k) at redshift z=1.5
# for k=2.23531e-07 to 11.2165 h/Mpc,
# number of wavenumbers equal to 139
#    1:k (h/Mpc)              2:P (Mpc/h)^3        
       2.235314877440e-07       2.110348132939e-01 
       2.814094702570e-07       2.629687270930e-01 
       3.542735332261e-07       3.276831453390e-01 
       4.460039537045e-07       4.083232438597e-01 
       5.614857110792e-07       5.088081997612e-01 
       7.068686300370e-07       6.340216671676e-01 
       8.898948811536e-07       7.900491258529e-01 
       1.120311279710e-06       9.844736405028e-01 
       1.410388339146e-06       1.226744402373e+00 
       1.775573720650e-06       1.528635965659e+00 
       2.235314877440e-06       1.904820494690e+00 
       2.814094702570e-06       2.373580832206e+00 
       3.542735332261e-06       2.957699039594e+00 
       4.460039537045e-06       3.685563579600e+00 
       5.614857110792e-06       4.592548933345e+00 
       7.068686300370e-06       5.722734658454e+00 
       8.898948811537e-06       7.131047352398e+00 
       1.120311279710e-05       8.885929466351e+00 
       1.410388339146e-05       1.107266433640e+01 
       1.775573720650e-05       1.379751842014e+01 
       2.235314877440e-05       1.719290076901e+01 
       2.814094702570e-05       2.142378803872e+01 
       3.542735332261e-05       2.669572237444e+01 
       4.460039537045e-05       3.326476123184e+01 
       5.614857110792e-05       4.144984365133e+01 
       7.068686300370e-05       5.164813648420e+01 
       8.898948811537e-05       6.435403269482e+01 
       1.120311279710e-04       8.018258045863e+01 
       1.410388339146e-04       9.989819951985e+01 
       1.775573720650e-04       1.244495329608e+02 
       2.235314877440e-04       1.550110780436e+02 
       2.814094702570e-04       1.930316386352e+02 
       3.542735332261e-04       2.402883202575e+02 
       4.460039537045e-04       2.989423159433e+02 
       5.614857110792e-04       3.715887937672e+02 
       7.068686300370e-04       4.612882744484e+02 
       8.898948811537e-04       5.715631868776e+02 
       1.120311279710e-03       7.063430395682e+02 
       1.410388339146e-03       8.698350311544e+02 
       1.775573720650e-03       1.066249660196e+03 
       2.235314877440e-03       1.299245674708e+03 
       2.814094702570e-03       1.571062781477e+03 
       3.542735332261e-03       1.881393663553e+03 
       4.460039537045e-03       2.225944418856e+03 
       5.614857110792e-03       2.594775416894e+03 
       7.068686300370e-03       2.970644953529e+03 
       8.898948811537e-03       3.327747948725e+03 
       1.120311279710e-02       3.631129157240e+03 
       1.410388339146e-02       3.837581324323e+03 
       1.775573720649e-02       3.899567649832e+03 
       2.235314872940e-02       3.775533401292e+03 
       2.814089847280e-02       3.451099896764e+03 
       3.541842378754e-02       2.969721766803e+03 
       4.421866234567e-02       2.461366718266e+03 
       5.222619853878e-02       2.123976824949e+03 
       5.796130059582e-02       1.943713083069e+03 
       6.259293437167e-02       1.822192661254e+03 
       6.668296031489e-02       1.725004698139e+03 
       7.047348510878e-02       1.638968192296e+03 
       7.408912647694e-02       1.558097555477e+03 
       7.760313327543e-02       1.479571667050e+03 
       8.106290866169e-02       1.402254594463e+03 
       8.450147032507e-02       1.326017779084e+03 
       8.794321476735e-02       1.251355253843e+03 
       9.140707730525e-02       1.179117589803e+03 
       9.490838455300e-02       1.110301300810e+03 
       9.846000008489e-02       1.045872716812e+03 
       1.020730644523e-01       9.866220837848e+02 
       1.057574905868e-01       9.330503727300e+02 
       1.095223053982e-01       8.852923142888e+02 
       1.133758911280e-01       8.430790671185e+02 
       1.173261592843e-01       8.057434062139e+02 
       1.213806779652e-01       7.722710615610e+02 
       1.255467661623e-01       7.414016138377e+02 
       1.298315641718e-01       7.117786075892e+02 
       1.342420864134e-01       6.821394957542e+02 
       1.387852611273e-01       6.515205681596e+02 
       1.434679602195e-01       6.194353841075e+02 
       1.482970217267e-01       5.859763995174e+02 
       1.532792668449e-01       5.517970746464e+02 
       1.584215131093e-01       5.179603471451e+02 
       1.637305850833e-01       4.856795525346e+02 
       1.692133237613e-01       4.560151333218e+02 
       1.748765957939e-01       4.296066171197e+02 
       1.807273035828e-01       4.065109405761e+02 
       1.867723972548e-01       3.861922051629e+02 
       1.930188895018e-01       3.676759298447e+02 
       1.994738742557e-01       3.498424544332e+02 
       2.061445501577e-01       3.317850117420e+02 
       2.130382497769e-01       3.131095696361e+02 
       2.201624755304e-01       2.940442903609e+02 
       2.275249432760e-01       2.752916334783e+02 
       2.351336345736e-01       2.576795592567e+02 
       2.429968586756e-01       2.417756202603e+02 
       2.511233254031e-01       2.276473121183e+02 
       2.595222302212e-01       2.148772841837e+02 
       2.682033530506e-01       2.028181343742e+02 
       2.771771726768e-01       1.909501637553e+02 
       2.864549990577e-01       1.791379559560e+02 
       2.960491264324e-01       1.676299377164e+02 
       3.059730109287e-01       1.568135242184e+02 
       3.162414774299e-01       1.469125658043e+02 
       3.268709618552e-01       1.378465010855e+02 
       3.378797968671e-01       1.293351956271e+02 
       3.492885514784e-01       1.211392234015e+02 
       3.611204383379e-01       1.132231151178e+02 
       3.734018069433e-01       1.057107046214e+02 
       3.861627471529e-01       9.870585802462e+01 
       3.994378358552e-01       9.217512024416e+01 
       4.132670716048e-01       8.599946422269e+01 
       4.276970590993e-01       8.010520818125e+01 
       4.427825301831e-01       7.450811907762e+01 
       4.585883247734e-01       6.923742193676e+01 
       4.751920105370e-01       6.426703403460e+01 
       4.926874056599e-01       5.954581806500e+01 
       5.111894042068e-01       5.505464422635e+01 
       5.308407229014e-01       5.079349195130e+01 
       5.518215548211e-01       4.674230853403e+01 
       5.743637491278e-01       4.287334196128e+01 
       5.987722726888e-01       3.917163411749e+01 
       6.254588369748e-01       3.561843531166e+01 
       6.549967519741e-01       3.218899220406e+01 
       6.882147365694e-01       2.885949906257e+01 
       7.263665418770e-01       2.560014090998e+01 
       7.714584237997e-01       2.237437251220e+01 
       8.269308252118e-01       1.913527643713e+01 
       8.991939502983e-01       1.582149086688e+01 
       1.001263251305e+00       1.236525407257e+01 
       1.160191596614e+00       8.784701588604e+00 
       1.416449130692e+00       5.489534980880e+00 
       1.777808515366e+00       3.185038605470e+00 
       2.237992869468e+00       1.818560656288e+00 
       2.817465401942e+00       1.029827958134e+00 
       3.546978790821e+00       5.789186684101e-01 
       4.465381734859e+00       3.232809545019e-01 
       5.621582539376e+00       1.794365328988e-01 
       7.077153113318e+00       9.904619197212e-02 
       8.909607897515e+00       5.439535584661e-02 
       1.121653179130e+01       2.973447809215e-02 
