# Matter power spectrum P(k) at redshift z=0
# for k=2.30268e-07 to 11.5543 h/Mpc,
# number of wavenumbers equal to 139
#    1:k (h/Mpc)              2:P (Mpc/h)^3        
       2.302677217492e-07       1.118876371404e+00 
       2.898898864260e-07       1.390375486647e+00 
       3.649497446438e-07       1.727754774939e+00 
       4.594445075599e-07       2.147000281418e+00 
       5.784063658764e-07       2.667977118068e+00 
       7.281704723453e-07       3.315370731985e+00 
       9.167123117537e-07       4.119856574709e+00 
       1.154072424571e-06       5.119553594632e+00 
       1.452891102344e-06       6.361830421965e+00 
       1.829081529310e-06       7.905549826693e+00 
       2.302677217492e-06       9.823857792251e+00 
       2.898898864260e-06       1.220764935099e+01 
       3.649497446438e-06       1.516987538335e+01 
       4.594445075599e-06       1.885089440935e+01 
       5.784063658764e-06       2.342512288203e+01 
       7.281704723453e-06       2.910929894154e+01 
       9.167123117537e-06       3.617275089546e+01 
       1.154072424571e-05       4.495015638988e+01 
       1.452891102344e-05       5.585739569492e+01 
       1.829081529310e-05       6.941124800048e+01 
       2.302677217492e-05       8.625385955174e+01 
       2.898898864260e-05       1.071831341952e+02 
       3.649497446438e-05       1.331904690765e+02 
       4.594445075599e-05       1.655075895663e+02 
       5.784063658764e-05       2.056646359240e+02 
       7.281704723453e-05       2.555621234098e+02 
       9.167123117537e-05       3.175599301104e+02 
       1.154072424571e-04       3.945870322488e+02 
       1.452891102344e-04       4.902762266375e+02 
       1.829081529310e-04       6.091283900609e+02 
       2.302677217492e-04       7.567106166912e+02 
       2.898898864260e-04       9.398913379285e+02 
       3.649497446438e-04       1.167112577239e+03 
       4.594445075599e-04       1.448694236037e+03 
       5.784063658764e-04       1.797157868103e+03 
       7.281704723453e-04       2.227548313884e+03 
       9.167123117537e-04       2.757715360320e+03 
       1.154072424571e-03       3.408467888484e+03 
       1.452891102344e-03       4.203407701248e+03 
       1.829081529310e-03       5.168192930845e+03 
       2.302677217492e-03       6.328983201097e+03 
       2.898898864260e-03       7.709590293523e+03 
       3.649497446438e-03       9.326903574716e+03 
       4.594445075599e-03       1.118427247968e+04 
       5.784063658764e-03       1.326209572014e+04 
       7.281704723453e-03       1.550564739308e+04 
       9.167123117537e-03       1.781072454525e+04 
       1.154072424571e-02       2.000818171369e+04 
       1.452891102344e-02       2.185269857690e+04 
       1.829081529271e-02       2.302910167425e+04 
       2.302677088518e-02       2.320565537257e+04 
       2.898839540371e-02       2.217585871468e+04 
       3.644051236576e-02       2.009944722227e+04 
       4.471010955121e-02       1.784030488725e+04 
       5.104317831549e-02       1.643944547682e+04 
       5.579530649409e-02       1.557085224923e+04 
       5.982157474155e-02       1.491910186089e+04 
       6.346864254420e-02       1.436542158625e+04 
       6.689912304782e-02       1.385560903917e+04 
       7.020244751347e-02       1.336141008748e+04 
       7.343373717826e-02       1.286776408427e+04 
       7.662996281230e-02       1.236767500764e+04 
       7.981761745242e-02       1.185972390800e+04 
       8.301674160703e-02       1.134656562130e+04 
       8.624320296143e-02       1.083377515631e+04 
       8.951006780068e-02       1.032879075814e+04 
       9.282846709477e-02       9.839868802404e+03 
       9.620816561728e-02       9.375051208893e+03 
       9.965794838608e-02       8.941189155623e+03 
       1.031858902688e-01       8.543087124912e+03 
       1.067995483021e-01       8.182834649091e+03 
       1.105061013509e-01       7.859393017508e+03 
       1.143124529394e-01       7.568501480250e+03 
       1.182253077274e-01       7.302969565644e+03 
       1.222512287555e-01       7.053409238809e+03 
       1.263966804378e-01       6.809423849763e+03 
       1.306680608808e-01       6.561182482251e+03 
       1.350717261875e-01       6.301174304257e+03 
       1.396140087889e-01       6.025789255811e+03 
       1.443012314390e-01       5.736282401152e+03 
       1.491397182371e-01       5.438727380457e+03 
       1.541358038638e-01       5.142788128750e+03 
       1.592958421017e-01       4.859484877898e+03 
       1.646262146407e-01       4.598468843537e+03 
       1.701333411201e-01       4.365511358742e+03 
       1.758236913332e-01       4.160896429245e+03 
       1.817038005012e-01       3.979228146136e+03 
       1.877802885102e-01       3.810884604689e+03 
       1.940598839992e-01       3.644950610915e+03 
       2.005494541816e-01       3.472896587468e+03 
       2.072560412902e-01       3.291692506632e+03 
       2.141869065540e-01       3.104894701528e+03 
       2.213495826532e-01       2.920931275642e+03 
       2.287519356733e-01       2.749173977475e+03 
       2.364022376872e-01       2.595605179233e+03 
       2.443092512700e-01       2.460169511633e+03 
       2.524823274977e-01       2.337130045005e+03 
       2.609315193241e-01       2.218353337638e+03 
       2.696677127062e-01       2.097891564242e+03 
       2.787027784793e-01       1.975187189664e+03 
       2.880497488261e-01       1.854736250564e+03 
       2.977230233012e-01       1.742383654236e+03 
       3.077386108445e-01       1.640963512675e+03 
       3.181144161730e-01       1.548518971762e+03 
       3.288705815520e-01       1.460346158926e+03 
       3.400298984558e-01       1.373070119714e+03 
       3.516183084098e-01       1.287153872045e+03 
       3.636655188817e-01       1.205586271957e+03 
       3.762057692773e-01       1.130293361824e+03 
       3.892787951044e-01       1.060175103426e+03 
       4.029310571044e-01       9.927428152822e+02 
       4.172173295976e-01       9.270933458273e+02 
       4.322027832692e-01       8.643938847771e+02 
       4.479657600968e-01       8.055452891213e+02 
       4.646015355416e-01       7.497189965637e+02 
       4.822275189061e-01       6.958332117757e+02 
       5.009905989201e-01       6.440680732889e+02 
       5.210777761562e-01       5.947743431013e+02 
       5.427319873068e-01       5.473811751226e+02 
       5.662764217630e-01       5.014870568858e+02 
       5.921532985772e-01       4.571382966730e+02 
       6.209884388659e-01       4.139246874958e+02 
       6.537044106038e-01       3.715063985500e+02 
       6.917310518189e-01       3.295011519206e+02 
       7.374256605022e-01       2.873295566984e+02 
       7.949801787272e-01       2.442440391546e+02 
       8.725283291509e-01       1.992683653858e+02 
       9.870409513799e-01       1.516152393761e+02 
       1.171356756434e+00       1.030639449618e+02 
       1.455507209392e+00       6.252774400715e+01 
       1.831251262631e+00       3.645586958931e+01 
       2.305394779149e+00       2.100716676783e+01 
       2.902320040141e+00       1.199306858823e+01 
       3.653804451684e+00       6.789814441463e+00 
       4.599867273952e+00       3.815028900649e+00 
       5.790889802059e+00       2.128899828024e+00 
       7.290298328711e+00       1.180588239767e+00 
       9.177941825575e+00       6.509738199222e-01 
       1.155434419219e+01       3.570737374682e-01 
