# Matter power spectrum P(k) at redshift z=0.5
# for k=2.05519e-07 to 10.3117 h/Mpc,
# number of wavenumbers equal to 139
#    1:k (h/Mpc)              2:P (Mpc/h)^3        
       2.055186159878e-07       9.148584215198e-01 
       2.587326082639e-07       1.138423599054e+00 
       3.257250554031e-07       1.416621697839e+00 
       4.100635495051e-07       1.762803437293e+00 
       5.162394229225e-07       2.193582069390e+00 
       6.499069280871e-07       2.729630647202e+00 
       8.181843470699e-07       3.396674122731e+00 
       1.030033066058e-06       4.226723883487e+00 
       1.296734801849e-06       5.259613971517e+00 
       1.632492394406e-06       6.544912706262e+00 
       2.055186159878e-06       8.144301440914e+00 
       2.587326082639e-06       1.013453460022e+01 
       3.257250554031e-06       1.261112302561e+01 
       4.100635495051e-06       1.569291734689e+01 
       5.162394229225e-06       1.952781124064e+01 
       6.499069280871e-06       2.429983809568e+01 
       8.181843470699e-06       3.023800129802e+01 
       1.030033066058e-05       3.762726118109e+01 
       1.296734801849e-05       4.682220453497e+01 
       1.632492394406e-05       5.826404989210e+01 
       2.055186159878e-05       7.250179928186e+01 
       2.587326082639e-05       9.021854082365e+01 
       3.257250554031e-05       1.122641433901e+02 
       4.100635495051e-05       1.396958708935e+02 
       5.162394229225e-05       1.738287838083e+02 
       6.499069280871e-05       2.162981865563e+02 
       8.181843470699e-05       2.691368040126e+02 
       1.030033066058e-04       3.348697787376e+02 
       1.296734801849e-04       4.166308605242e+02 
       1.632492394406e-04       5.183030837099e+02 
       2.055186159878e-04       6.446863702432e+02 
       2.587326082639e-04       8.016921436905e+02 
       3.257250554032e-04       9.965601772279e+02 
       4.100635495051e-04       1.238084560785e+03 
       5.162394229225e-04       1.536824099858e+03 
       6.499069280871e-04       1.905260673386e+03 
       8.181843470699e-04       2.357859384347e+03 
       1.030033066058e-03       2.910955647993e+03 
       1.296734801849e-03       3.582280861864e+03 
       1.632492394406e-03       4.389780402155e+03 
       2.055186159878e-03       5.349487060104e+03 
       2.587326082639e-03       6.472237953694e+03 
       3.257250554032e-03       7.758951467074e+03 
       4.100635495051e-03       9.194665866309e+03 
       5.162394229225e-03       1.074080476553e+04 
       6.499069280871e-03       1.232663498236e+04 
       8.181843470699e-03       1.384090963528e+04 
       1.030033066058e-02       1.512460578695e+04 
       1.296734801849e-02       1.596919679972e+04 
       1.632492394405e-02       1.613107335409e+04 
       2.055186152268e-02       1.538621803202e+04 
       2.587319041986e-02       1.365845586971e+04 
       3.256108336378e-02       1.121467675237e+04 
       4.056860547701e-02       8.829862374718e+03 
       4.761532456872e-02       7.465396317002e+03 
       5.268190212540e-02       6.833686350191e+03 
       5.681191341803e-02       6.458893744568e+03 
       6.047694358055e-02       6.184070409475e+03 
       6.388315307963e-02       5.946578775681e+03 
       6.713796179852e-02       5.715922734592e+03 
       7.030506200121e-02       5.476326834691e+03 
       7.342594084636e-02       5.220571963393e+03 
       7.652964345728e-02       4.947292777763e+03 
       7.963772134977e-02       4.659432983480e+03 
       8.276696123704e-02       4.363051408693e+03 
       8.593099220821e-02       4.066193651704e+03 
       8.914128342940e-02       3.777762752123e+03 
       9.240779057694e-02       3.506430303341e+03 
       9.573938969337e-02       3.259668744685e+03 
       9.914417697676e-02       3.042984155009e+03 
       1.026296809593e-01       2.859392367396e+03 
       1.062030156288e-01       2.709138138599e+03 
       1.098709926355e-01       2.589630570888e+03 
       1.136402044631e-01       2.495578295937e+03 
       1.175170865585e-01       2.419357272586e+03 
       1.215079639489e-01       2.351699833035e+03 
       1.256190862807e-01       2.282799122901e+03 
       1.298566541623e-01       2.203825125818e+03 
       1.342268389986e-01       2.108643138021e+03 
       1.387357980403e-01       1.995291643271e+03 
       1.433896860621e-01       1.866663233287e+03 
       1.481946648827e-01       1.729974321129e+03 
       1.531569118050e-01       1.595015175959e+03 
       1.582826279724e-01       1.471657620105e+03 
       1.635780475831e-01       1.367381586756e+03 
       1.690494488723e-01       1.285497221256e+03 
       1.747031677506e-01       1.224406996193e+03 
       1.805456149735e-01       1.177988353539e+03 
       1.865832977071e-01       1.137134842913e+03 
       1.928228463521e-01       1.092420004069e+03 
       1.992710474860e-01       1.037357376228e+03 
       2.059348838014e-01       9.709576524396e+02 
       2.128215819438e-01       8.980649367050e+02 
       2.199386692105e-01       8.269603202332e+02 
       2.272940401652e-01       7.653975781570e+02 
       2.348960343659e-01       7.171413880268e+02 
       2.427535266151e-01       6.805661387182e+02 
       2.508760314377e-01       6.497739598923e+02 
       2.592738239035e-01       6.178104234799e+02 
       2.679580794617e-01       5.805802354404e+02 
       2.769410361941e-01       5.390863917256e+02 
       2.862361838689e-01       4.982059091750e+02 
       2.958584854714e-01       4.628415185794e+02 
       3.058246385939e-01       4.344425583728e+02 
       3.161533863475e-01       4.103856273338e+02 
       3.268658905095e-01       3.864810326307e+02 
       3.379861837555e-01       3.605802450478e+02 
       3.495417234960e-01       3.340959425436e+02 
       3.615640777031e-01       3.099778492998e+02 
       3.740897842026e-01       2.894207752530e+02 
       3.871614407683e-01       2.708838740551e+02 
       4.008291064350e-01       2.522769735989e+02 
       4.151521286670e-01       2.334845411850e+02 
       4.302015627533e-01       2.159690864313e+02 
       4.460634297752e-01       2.002921675629e+02 
       4.628431861298e-01       1.854367097517e+02 
       4.806719835705e-01       1.707408430295e+02 
       4.997156439125e-01       1.567962794368e+02 
       5.201878707392e-01       1.438445356695e+02 
       5.423702969839e-01       1.313083768754e+02 
       5.666439893674e-01       1.191826863690e+02 
       5.935410181825e-01       1.076236642691e+02 
       6.238330110548e-01       9.632705455709e+01 
       6.586920424823e-01       8.530429200535e+01 
       7.000029935161e-01       7.438186347857e+01 
       7.510178647099e-01       6.342080210205e+01 
       8.178382685862e-01       5.219738693087e+01 
       9.129247615464e-01       4.049770620375e+01 
       1.062010573191e+00       2.844696466822e+01 
       1.301279548024e+00       1.757415414374e+01 
       1.634364337585e+00       1.014809085426e+01 
       2.057457156386e+00       5.777031668187e+00 
       2.590184715632e+00       3.262472631553e+00 
       3.260849359499e+00       1.829261472444e+00 
       4.105166122706e+00       1.018996456399e+00 
       5.168097951512e+00       5.642683346897e-01 
       6.506249841799e+00       3.107660921748e-01 
       8.190883261323e+00       1.702977266200e-01 
       1.031171108272e+01       9.289228749182e-02 
