# Matter power spectrum P(k) at redshift z=0.5
# for k=2.07434e-07 to 10.4102 h/Mpc,
# number of wavenumbers equal to 139
#    1:k (h/Mpc)              2:P (Mpc/h)^3        
       2.074339284640e-07       8.031026069776e-01 
       2.611438438116e-07       1.003231212139e+00 
       3.287606211081e-07       1.253230727590e+00 
       4.138851003102e-07       1.565528699806e+00 
       5.210504703435e-07       1.955649548787e+00 
       6.559636779427e-07       2.442986289827e+00 
       8.258093433760e-07       3.051764564116e+00 
       1.039632367673e-06       3.812246898492e+00 
       1.308819606587e-06       4.762237056721e+00 
       1.647706262187e-06       5.948959260920e+00 
       2.074339284640e-06       7.431405690035e+00 
       2.611438438116e-06       9.283268939611e+00 
       3.287606211081e-06       1.159660518484e+01 
       4.138851003102e-06       1.448641008737e+01 
       5.210504703434e-06       1.809633480267e+01 
       6.559636779427e-06       2.260582601226e+01 
       8.258093433760e-06       2.823904447021e+01 
       1.039632367673e-05       3.527600453115e+01 
       1.308819606587e-05       4.406648669789e+01 
       1.647706262187e-05       5.504741134037e+01 
       2.074339284640e-05       6.876453049448e+01 
       2.611438438116e-05       8.589950265316e+01 
       3.287606211081e-05       1.073036699626e+02 
       4.138851003102e-05       1.340401645918e+02 
       5.210504703435e-05       1.674363340506e+02 
       6.559636779427e-05       2.091488879310e+02 
       8.258093433760e-05       2.612446040476e+02 
       1.039632367673e-04       3.262998217197e+02 
       1.308819606587e-04       4.075221421809e+02 
       1.647706262187e-04       5.088974467088e+02 
       2.074339284640e-04       6.353639711156e+02 
       2.611438438116e-04       7.930118045822e+02 
       3.287606211081e-04       9.892995105527e+02 
       4.138851003102e-04       1.233268446250e+03 
       5.210504703435e-04       1.535720463881e+03 
       6.559636779427e-04       1.909310820301e+03 
       8.258093433760e-04       2.368499573369e+03 
       1.039632367673e-03       2.929274074028e+03 
       1.308819606587e-03       3.608415240242e+03 
       1.647706262187e-03       4.421901052432e+03 
       2.074339284640e-03       5.382277548619e+03 
       2.611438438116e-03       6.494943839045e+03 
       3.287606211081e-03       7.753156149258e+03 
       4.138851003102e-03       9.132280916908e+03 
       5.210504703435e-03       1.058379090994e+04 
       6.559636779427e-03       1.203046790099e+04 
       8.258093433760e-03       1.336450359232e+04 
       1.039632367673e-02       1.444980517109e+04 
       1.308819606587e-02       1.513067292957e+04 
       1.647706262187e-02       1.525045092592e+04 
       2.074339282961e-02       1.468796377519e+04 
       2.611436162263e-02       1.342118159540e+04 
       3.287101951601e-02       1.160896087198e+04 
       4.113571616261e-02       9.656888866739e+03 
       4.902796019060e-02       8.239606640015e+03 
       5.467822775683e-02       7.445086888089e+03 
       5.917646906966e-02       6.899354413188e+03 
       6.311864372334e-02       6.461855588198e+03 
       6.675647381674e-02       6.080795389767e+03 
       7.021716798665e-02       5.733428917525e+03 
       7.357452677091e-02       5.409072229217e+03 
       7.687584929691e-02       5.102942059505e+03 
       8.015383140470e-02       4.813393933668e+03 
       8.343248199269e-02       4.540441078464e+03 
       8.673033797122e-02       4.284836258177e+03 
       9.006233593338e-02       4.047446157625e+03 
       9.344096323673e-02       3.828811220653e+03 
       9.687699813108e-02       3.628849153516e+03 
       1.003800033701e-01       3.446687424020e+03 
       1.039586655149e-01       3.280620770908e+03 
       1.076210340529e-01       3.128192546201e+03 
       1.113746933690e-01       2.986396931241e+03 
       1.152268884307e-01       2.851990158394e+03 
       1.191846177707e-01       2.721881896321e+03 
       1.232547028594e-01       2.593554642131e+03 
       1.274438401258e-01       2.465434896627e+03 
       1.317586400495e-01       2.337126771699e+03 
       1.362056565516e-01       2.209430220002e+03 
       1.407914091097e-01       2.084106862390e+03 
       1.455223994998e-01       1.963422374402e+03 
       1.504051247091e-01       1.849561898214e+03 
       1.554460873352e-01       1.744062080553e+03 
       1.606518046322e-01       1.647409553189e+03 
       1.660288172709e-01       1.558920670648e+03 
       1.715836988138e-01       1.476949481505e+03 
       1.773230668728e-01       1.399382913812e+03 
       1.832535968908e-01       1.324286529623e+03 
       1.893820394717e-01       1.250487850707e+03 
       1.957152421760e-01       1.177872727577e+03 
       2.022601766893e-01       1.107262181730e+03 
       2.090239722750e-01       1.039916151804e+03 
       2.160139564291e-01       9.768907464508e+02 
       2.232377036867e-01       9.185505502882e+02 
       2.307030935793e-01       8.644580753600e+02 
       2.384183788336e-01       8.136685435829e+02 
       2.463922650422e-01       7.652464405591e+02 
       2.546340032441e-01       7.187018613554e+02 
       2.631534971453e-01       6.741003796037e+02 
       2.719614271206e-01       6.318172134199e+02 
       2.810693936847e-01       5.921449242771e+02 
       2.904900838612e-01       5.550443038028e+02 
       3.002374648518e-01       5.201888232827e+02 
       3.103270107016e-01       4.872120177928e+02 
       3.207759693657e-01       4.559221416073e+02 
       3.316036798516e-01       4.263152305392e+02 
       3.428319521597e-01       3.984248135689e+02 
       3.544855268505e-01       3.721884659490e+02 
       3.665926366972e-01       3.474547544720e+02 
       3.791857006636e-01       3.240818339743e+02 
       3.923021913893e-01       3.019936540189e+02 
       4.059857329625e-01       2.811440354110e+02 
       4.202875083899e-01       2.614628743550e+02 
       4.352680895840e-01       2.428585633958e+02 
       4.509998530198e-01       2.252524103375e+02 
       4.675702216536e-01       2.085839391271e+02 
       4.850860957416e-01       1.927903274545e+02 
       5.036800326219e-01       1.778018787736e+02 
       5.235190643814e-01       1.635521444815e+02 
       5.448176083573e-01       1.499766729539e+02 
       5.678569362682e-01       1.370071408424e+02 
       5.930155499962e-01       1.245702797357e+02 
       6.208184870313e-01       1.125893602344e+02 
       6.520211516028e-01       1.009761814317e+02 
       6.877598547239e-01       8.963027749055e+01 
       7.298401131093e-01       7.842768094418e+01 
       7.813313691604e-01       6.721373347664e+01 
       8.478951019422e-01       5.578494919229e+01 
       9.409245730715e-01       4.390550526653e+01 
       1.084245343296e+00       3.156634607490e+01 
       1.316350594940e+00       1.997207041628e+01 
       1.650075137311e+00       1.161774095803e+01 
       2.077108522216e+00       6.632945764467e+00 
       2.614923377777e+00       3.756393485945e+00 
       3.291993488883e+00       2.112255501071e+00 
       4.144374258616e+00       1.180091232401e+00 
       5.217458070157e+00       6.554319697724e-01 
       6.568390549492e+00       3.620785625670e-01 
       8.269113777344e+00       1.990378688720e-01 
       1.041019746732e+01       1.089175506467e-01 
