# Matter power spectrum P(k) at redshift z=1
# for k=1.56988e-07 to 12.4863 h/Mpc,
# number of wavenumbers equal to 141
#    1:k (h/Mpc)              2:P (Mpc/h)^3        
       1.569878850523e-07       1.303695599994e+00 
       1.976360378362e-07       1.620489417360e+00 
       2.488090303183e-07       2.014263107325e+00 
       3.132320109515e-07       2.503722528608e+00 
       3.943357383743e-07       3.112119001569e+00 
       4.964392818180e-07       3.868353838861e+00 
       6.249800272935e-07       4.808351272520e+00 
       7.868032382236e-07       5.976764994409e+00 
       9.905265906817e-07       7.429099374544e+00 
       1.246999096067e-06       9.234346117046e+00 
       1.569878850523e-06       1.147826159196e+01 
       1.976360378362e-06       1.426744050010e+01 
       2.488090303183e-06       1.773437934136e+01 
       3.132320109515e-06       2.204377010343e+01 
       3.943357383743e-06       2.740032295242e+01 
       4.964392818180e-06       3.405848912692e+01 
       6.249800272935e-06       4.233454509475e+01 
       7.868032382236e-06       5.262161046499e+01 
       9.905265906817e-06       6.540830992854e+01 
       1.246999096067e-05       8.130195963311e+01 
       1.569878850523e-05       1.010573673448e+02 
       1.976360378362e-05       1.256125907722e+02 
       2.488090303183e-05       1.561333059259e+02 
       3.132320109515e-05       1.940678011615e+02 
       3.943357383743e-05       2.412150285757e+02 
       4.964392818180e-05       2.998085908404e+02 
       6.249800272935e-05       3.726199588876e+02 
       7.868032382236e-05       4.630844706853e+02 
       9.905265906817e-05       5.754534744756e+02 
       1.246999096067e-04       7.149748135494e+02 
       1.569878850523e-04       8.881007255224e+02 
       1.976360378362e-04       1.102715536109e+03 
       2.488090303183e-04       1.368363040859e+03 
       3.132320109515e-04       1.696433295880e+03 
       3.943357383743e-04       2.100242407586e+03 
       4.964392818180e-04       2.594918116600e+03 
       6.249800272935e-04       3.197007501211e+03 
       7.868032382236e-04       3.923728654614e+03 
       9.905265906817e-04       4.791631286061e+03 
       1.246999096067e-03       5.814041173357e+03 
       1.569878850523e-03       6.996924528475e+03 
       1.976360378362e-03       8.333709483454e+03 
       2.488090303183e-03       9.799219233199e+03 
       3.132320109515e-03       1.134364426528e+04 
       3.943357383743e-03       1.288663031374e+04 
       4.964392818180e-03       1.431462880077e+04 
       6.249800272935e-03       1.548147485977e+04 
       7.868032382236e-03       1.621381817439e+04 
       9.905265906817e-03       1.632341089986e+04 
       1.246999096067e-02       1.563470107016e+04 
       1.569878848973e-02       1.404621668827e+04 
       1.976358378796e-02       1.164568953886e+04 
       2.487664856484e-02       8.846646628756e+03 
       3.111712890901e-02       6.413121389017e+03 
       3.701538180934e-02       5.102472146379e+03 
       4.123600139010e-02       4.570936760010e+03 
       4.460673146623e-02       4.283299820635e+03 
       4.756575648512e-02       4.077044732074e+03 
       5.029892993366e-02       3.894678162468e+03 
       5.290055190726e-02       3.711336899193e+03 
       5.542548769327e-02       3.516264491425e+03 
       5.790897526263e-02       3.306503974121e+03 
       6.037541344645e-02       3.084058376001e+03 
       6.284274280828e-02       2.854158232933e+03 
       6.532483079110e-02       2.623898586552e+03 
       6.783286239375e-02       2.401035224797e+03 
       7.037619648055e-02       2.192930094847e+03 
       7.296291692284e-02       2.005702738639e+03 
       7.560020047216e-02       1.843642762514e+03 
       7.829456980393e-02       1.708895701369e+03 
       8.105207194571e-02       1.601384608943e+03 
       8.387840665757e-02       1.518895962684e+03 
       8.677902029197e-02       1.457271417776e+03 
       8.975917524898e-02       1.410701622687e+03 
       9.282400180462e-02       1.372190112443e+03 
       9.597853697837e-02       1.334288940782e+03 
       9.922775374253e-02       1.290148355645e+03 
       1.025765829818e-01       1.234763759801e+03 
       1.060299300189e-01       1.166103564842e+03 
       1.095926871276e-01       1.085687201861e+03 
       1.132697431912e-01       9.982743582525e+02 
       1.170659914923e-01       9.106366868819e+02 
       1.209863365052e-01       8.297702684213e+02 
       1.250357004919e-01       7.611368817992e+02 
       1.292190306544e-01       7.074444442375e+02 
       1.335413075721e-01       6.681796916508e+02 
       1.380075556285e-01       6.398552396948e+02 
       1.426228561279e-01       6.169069061712e+02 
       1.473923637878e-01       5.932283383877e+02 
       1.523213272915e-01       5.641342760521e+02 
       1.574151145865e-01       5.280687552592e+02 
       1.626792436203e-01       4.871124598893e+02 
       1.681194192272e-01       4.458233393304e+02 
       1.737415769213e-01       4.089682774718e+02 
       1.795519344168e-01       3.793776609737e+02 
       1.855570518062e-01       3.569229517478e+02 
       1.917639014813e-01       3.389047315845e+02 
       1.981799491068e-01       3.215980845234e+02 
       2.048132472666e-01       3.022899641607e+02 
       2.116725438163e-01       2.806945152308e+02 
       2.187674075382e-01       2.587520811304e+02 
       2.261083744336e-01       2.389558709067e+02 
       2.337071189642e-01       2.225339722494e+02 
       2.415766558526e-01       2.088006735014e+02 
       2.497315797717e-01       1.959843237873e+02 
       2.581883525595e-01       1.827736458720e+02 
       2.669656507153e-01       1.692697362666e+02 
       2.760847901978e-01       1.565303899381e+02 
       2.855702514524e-01       1.453001654229e+02 
       2.954503358997e-01       1.353111318545e+02 
       3.057579969596e-01       1.257824109297e+02 
       3.165319058760e-01       1.163776333535e+02 
       3.278178379992e-01       1.074219977875e+02 
       3.396705034499e-01       9.923641949032e+01 
       3.521560050096e-01       9.165728595222e+01 
       3.653551989855e-01       8.438498348876e+01 
       3.793683851960e-01       7.743758765608e+01 
       3.943220029303e-01       7.094140482161e+01 
       4.103784416292e-01       6.480659293337e+01 
       4.277508470824e-01       5.892908737461e+01 
       4.467262431007e-01       5.333704091411e+01 
       4.677031020806e-01       4.798672086544e+01 
       4.912553038078e-01       4.281983710998e+01 
       5.182471589776e-01       3.780800104166e+01 
       5.500540709482e-01       3.288731660298e+01 
       5.890186176358e-01       2.799396517158e+01 
       6.394709879124e-01       2.304326187480e+01 
       7.101424824520e-01       1.794527633044e+01 
       8.192735454486e-01       1.271803017324e+01 
       9.958845335179e-01       7.903750738879e+00 
       1.248745141026e+00       4.520172766721e+00 
       1.571932871930e+00       2.541335345160e+00 
       1.978945378887e+00       1.418719635605e+00 
       2.491344625235e+00       7.870964665745e-01 
       3.136417058245e+00       4.342008124795e-01 
       3.948515136609e+00       2.382816962960e-01 
       4.970886044331e+00       1.301399334989e-01 
       6.257974760341e+00       7.076368629063e-02 
       7.878323452160e+00       3.832034894626e-02 
       9.918221596258e+00       2.067218465875e-02 
       1.248630120733e+01       1.111163130214e-02 
