# Matter power spectrum P(k) at redshift z=1
# for k=1.85536e-07 to 11.7186 h/Mpc,
# number of wavenumbers equal to 140
#    1:k (h/Mpc)              2:P (Mpc/h)^3        
       1.855364609136e-07       1.028718393674e+00 
       2.335765654584e-07       1.275693976490e+00 
       2.940554738552e-07       1.581963665750e+00 
       3.701939085135e-07       1.961762840181e+00 
       4.660465187191e-07       2.432744519528e+00 
       5.867178054937e-07       3.016799874233e+00 
       7.386339548881e-07       3.741075722981e+00 
       9.298850558227e-07       4.639236310666e+00 
       1.170655926823e-06       5.753028013003e+00 
       1.473768494745e-06       7.134219691514e+00 
       1.855364609136e-06       8.847008883174e+00 
       2.335765654584e-06       1.097100564935e+01 
       2.940554738552e-06       1.360493275806e+01 
       3.701939085135e-06       1.687121413767e+01 
       4.660465187191e-06       2.092166479655e+01 
       5.867178054937e-06       2.594454651973e+01 
       7.386339548881e-06       3.217331697713e+01 
       9.298850558227e-06       3.989747829937e+01 
       1.170655926823e-05       4.947602818441e+01 
       1.473768494745e-05       6.135413637561e+01 
       1.855364609136e-05       7.608381707581e+01 
       2.335765654584e-05       9.434954912629e+01 
       2.940554738552e-05       1.170000170495e+02 
       3.701939085135e-05       1.450874135794e+02 
       4.660465187191e-05       1.799160622731e+02 
       5.867178054937e-05       2.231024868517e+02 
       7.386339548881e-05       2.766494583128e+02 
       9.298850558227e-05       3.430369535858e+02 
       1.170655926823e-04       4.253332684537e+02 
       1.473768494745e-04       5.273295557032e+02 
       1.855364609136e-04       6.537004480759e+02 
       2.335765654584e-04       8.101915503552e+02 
       2.940554738552e-04       1.003830496784e+03 
       3.701939085135e-04       1.243150874061e+03 
       4.660465187191e-04       1.538407239264e+03 
       5.867178054937e-04       1.901746883780e+03 
       7.386339548881e-04       2.347294551077e+03 
       9.298850558227e-04       2.891092814302e+03 
       1.170655926823e-03       3.550767523820e+03 
       1.473768494745e-03       4.344601005959e+03 
       1.855364609136e-03       5.289639792568e+03 
       2.335765654585e-03       6.398744014681e+03 
       2.940554738552e-03       7.676240061011e+03 
       3.701939085135e-03       9.112032289973e+03 
       4.660465187191e-03       1.067346893717e+04 
       5.867178054937e-03       1.229564448299e+04 
       7.386339548881e-03       1.387033840829e+04 
       9.298850558227e-03       1.523483834496e+04 
       1.170655926823e-02       1.616565719694e+04 
       1.473768494738e-02       1.639119990359e+04 
       1.855364577552e-02       1.565432476013e+04 
       2.335745866024e-02       1.386564275033e+04 
       2.938217323839e-02       1.133737331907e+04 
       3.634636425234e-02       8.989747605949e+03 
       4.198957637619e-02       7.751293242620e+03 
       4.612916520727e-02       7.155844029030e+03 
       4.957959627415e-02       6.795241533245e+03 
       5.267786552624e-02       6.531678982916e+03 
       5.557710616077e-02       6.305703080989e+03 
       5.835957171777e-02       6.086356007830e+03 
       6.107510491657e-02       5.856421448416e+03 
       6.375670706081e-02       5.607069328736e+03 
       6.642778372381e-02       5.335521749738e+03 
       6.910588868209e-02       5.043737028027e+03 
       7.180481947674e-02       4.737364883696e+03 
       7.453586628682e-02       4.424687812298e+03 
       7.730859464006e-02       4.115474973043e+03 
       8.013135653671e-02       3.819791428617e+03 
       8.301163571967e-02       3.546862328920e+03 
       8.595628753093e-02       3.304102421456e+03 
       8.897170941560e-02       3.096390496906e+03 
       9.206396439836e-02       2.925614312232e+03 
       9.523887180894e-02       2.790463937364e+03 
       9.850207465769e-02       2.686441976221e+03 
       1.018590900250e-01       2.606100257741e+03 
       1.053153468907e-01       2.539592249612e+03 
       1.088762145706e-01       2.475682672071e+03 
       1.125470240974e-01       2.403306793544e+03 
       1.163330843331e-01       2.313572662533e+03 
       1.202396942314e-01       2.201793865792e+03 
       1.242721524263e-01       2.068888287377e+03 
       1.284357651617e-01       1.921479836408e+03 
       1.327358534733e-01       1.770413265864e+03 
       1.371777604691e-01       1.628010120876e+03 
       1.417668595113e-01       1.504918662754e+03 
       1.465085640798e-01       1.407504247500e+03 
       1.514083400780e-01       1.336374927782e+03 
       1.564717213323e-01       1.286208505133e+03 
       1.617043290292e-01       1.246932999321e+03 
       1.671118958315e-01       1.206397679864e+03 
       1.727002954153e-01       1.154341350934e+03 
       1.784755781869e-01       1.086428594355e+03 
       1.844440139661e-01       1.006209519521e+03 
       1.906121424760e-01       9.234306906508e+02 
       1.969868325696e-01       8.493005019207e+02 
       2.035753512558e-01       7.912778620800e+02 
       2.103854437836e-01       7.499464885868e+02 
       2.174254263171e-01       7.191060698667e+02 
       2.247042931108e-01       6.890372368337e+02 
       2.322318405960e-01       6.518919693790e+02 
       2.400188114687e-01       6.063868678820e+02 
       2.480770627532e-01       5.582073293866e+02 
       2.564197629992e-01       5.154057422108e+02 
       2.650616253263e-01       4.824158042488e+02 
       2.740191851149e-01       4.572161974468e+02 
       2.833111339335e-01       4.334781003900e+02 
       2.929587250906e-01       4.061147529488e+02 
       3.029862714154e-01       3.756276089941e+02 
       3.134217631292e-01       3.468397320751e+02 
       3.242976439367e-01       3.233269900953e+02 
       3.356517981932e-01       3.037637900947e+02 
       3.475288235256e-01       2.840929066406e+02 
       3.599816953028e-01       2.627778807966e+02 
       3.730739779896e-01       2.422672093428e+02 
       3.868828139471e-01       2.247007744408e+02 
       4.015030404942e-01       2.086756743213e+02 
       4.170529827775e-01       1.921742855248e+02 
       4.336828018840e-01       1.760938055387e+02 
       4.515868570504e-01       1.616443094494e+02 
       4.710225923768e-01       1.476620652239e+02 
       4.923404525460e-01       1.337883287428e+02 
       5.160333071748e-01       1.207800146192e+02 
       5.428222502243e-01       1.079415844487e+02 
       5.738145009018e-01       9.539953964211e+01 
       6.108145828194e-01       8.290999336056e+01 
       6.569870066728e-01       7.033391482626e+01 
       7.183793465364e-01       5.737429591972e+01 
       8.075064354705e-01       4.382354814803e+01 
       9.495114404294e-01       3.002468713690e+01 
       1.173234120325e+00       1.817505767219e+01 
       1.475303442951e+00       1.045496858407e+01 
       1.857269259431e+00       5.944116252290e+00 
       2.338163381434e+00       3.352109573782e+00 
       2.943573297777e+00       1.876546397543e+00 
       3.705739226051e+00       1.043517174734e+00 
       4.665249281158e+00       5.767587724227e-01 
       5.873200872404e+00       3.170065331150e-01 
       7.393921826841e+00       1.733481801855e-01 
       9.308396080630e+00       9.434528918601e-02 
       1.171857636895e+01       5.112341783085e-02 
