# Matter power spectrum P(k) at redshift z=0
# for k=1.6869e-07 to 10.6566 h/Mpc,
# number of wavenumbers equal to 140
#    1:k (h/Mpc)              2:P (Mpc/h)^3        
       1.686904726574e-07       2.439394988610e+00 
       2.123687227560e-07       3.045174095953e+00 
       2.673563817478e-07       3.801387357142e+00 
       3.365817429876e-07       4.745392338822e+00 
       4.237313093931e-07       5.923823672209e+00 
       5.334461131677e-07       7.394896839813e+00 
       6.715688676897e-07       9.231284061902e+00 
       8.454551133044e-07       1.152370435042e+01 
       1.064364926670e-06       1.438540507661e+01 
       1.339956053608e-06       1.795775642978e+01 
       1.686904726574e-06       2.241723511191e+01 
       2.123687227560e-06       2.798414221325e+01 
       2.673563817478e-06       3.493348583704e+01 
       3.365817429876e-06       4.360856586801e+01 
       4.237313093931e-06       5.443793156445e+01 
       5.334461131677e-06       6.795654888035e+01 
       6.715688676897e-06       8.483222154351e+01 
       8.454551133044e-06       1.058985679122e+02 
       1.064364926670e-05       1.321961762615e+02 
       1.339956053608e-05       1.650239590043e+02 
       1.686904726574e-05       2.060032177354e+02 
       2.123687227560e-05       2.571575345789e+02 
       2.673563817478e-05       3.210123388465e+02 
       3.365817429876e-05       4.007188748895e+02 
       4.237313093931e-05       5.002083151590e+02 
       5.334461131677e-05       6.243828836930e+02 
       6.715688676897e-05       7.793519649396e+02 
       8.454551133044e-05       9.727219988733e+02 
       1.064364926670e-04       1.213948942776e+03 
       1.339956053608e-04       1.514760123498e+03 
       1.686904726574e-04       1.889646499773e+03 
       2.123687227560e-04       2.356413745824e+03 
       2.673563817478e-04       2.936757654287e+03 
       3.365817429876e-04       3.656794692045e+03 
       4.237313093931e-04       4.547438436155e+03 
       5.334461131677e-04       5.644482138047e+03 
       6.715688676897e-04       6.988211182491e+03 
       8.454551133044e-04       8.622177178582e+03 
       1.064364926670e-03       1.059028360303e+04 
       1.339956053608e-03       1.293128758639e+04 
       1.686904726574e-03       1.567052275726e+04 
       2.123687227560e-03       1.880817908862e+04 
       2.673563817478e-03       2.230483522018e+04 
       3.365817429876e-03       2.606582780785e+04 
       4.237313093931e-03       2.992540402361e+04 
       5.334461131677e-03       3.363634813736e+04 
       6.715688676897e-03       3.686758154997e+04 
       8.454551133044e-03       3.921350531497e+04 
       1.064364926670e-02       4.022098887794e+04 
       1.339956053607e-02       3.945059021213e+04 
       1.686904723539e-02       3.660815831498e+04 
       2.123683858996e-02       3.178692374866e+04 
       2.672929849698e-02       2.576570951147e+04 
       3.338171286133e-02       2.015584159294e+04 
       3.947187262084e-02       1.683211128648e+04 
       4.383193100042e-02       1.522150583483e+04 
       4.734696502521e-02       1.419563350845e+04 
       5.044810854313e-02       1.339217803705e+04 
       5.332066003509e-02       1.267856149138e+04 
       5.605978168339e-02       1.199733162965e+04 
       5.872131887362e-02       1.132362882190e+04 
       6.134136886892e-02       1.064985673289e+04 
       6.394505086661e-02       9.978614368427e+03 
       6.655091094608e-02       9.318559290476e+03 
       6.917333425868e-02       8.681455054840e+03 
       7.182395791010e-02       8.079818304353e+03 
       7.451254414986e-02       7.525002026523e+03 
       7.724754407122e-02       7.025706679662e+03 
       8.003647480279e-02       6.586938931245e+03 
       8.288617949547e-02       6.209418664694e+03 
       8.580301095564e-02       5.889409923841e+03 
       8.879296394977e-02       5.618954531189e+03 
       9.186177203483e-02       5.386516763889e+03 
       9.501497926628e-02       5.178087451912e+03 
       9.825799373369e-02       4.978789567139e+03 
       1.015961277187e-01       4.774929041251e+03 
       1.050346278763e-01       4.556238078059e+03 
       1.085786979251e-01       4.317828041748e+03 
       1.122335157269e-01       4.061243265223e+03 
       1.160042462301e-01       3.794115978442e+03 
       1.198960514836e-01       3.528303773684e+03 
       1.239140987503e-01       3.276910885834e+03 
       1.280635676353e-01       3.051002271985e+03 
       1.323496570666e-01       2.856906755855e+03 
       1.367775929238e-01       2.694772624731e+03 
       1.413526370792e-01       2.558685208659e+03 
       1.460800985974e-01       2.438366444681e+03 
       1.509653478291e-01       2.322205687848e+03 
       1.560138341237e-01       2.200931833449e+03 
       1.612311078855e-01       2.070685464258e+03 
       1.666228476936e-01       1.934073837200e+03 
       1.721948932204e-01       1.798501932135e+03 
       1.779532847024e-01       1.672469134747e+03 
       1.839043097668e-01       1.561646392854e+03 
       1.900545584857e-01       1.466594457750e+03 
       1.964109876532e-01       1.383064514530e+03 
       2.029809954438e-01       1.304606460286e+03 
       2.097725078595e-01       1.226125457536e+03 
       2.167940787010e-01       1.146395479743e+03 
       2.240550052530e-01       1.067990340395e+03 
       2.315654624753e-01       9.947996635819e+02 
       2.393366592874e-01       9.290480339160e+02 
       2.473810215947e-01       8.699706160668e+02 
       2.557124080944e-01       8.148825432644e+02 
       2.643463667649e-01       7.615217667388e+02 
       2.733004424277e-01       7.096135048181e+02 
       2.825945491439e-01       6.604145552451e+02 
       2.922514258201e-01       6.149758086307e+02 
       3.022971997970e-01       5.730259367605e+02 
       3.127620921926e-01       5.334779710145e+02 
       3.236813116308e-01       4.956795591868e+02 
       3.350962016660e-01       4.598297789912e+02 
       3.470557348532e-01       4.262560675231e+02 
       3.596184881276e-01       3.947618019132e+02 
       3.728552984992e-01       3.649100479470e+02 
       3.868528997102e-01       3.365639886744e+02 
       4.017190053955e-01       3.097717792386e+02 
       4.175895798084e-01       2.843976308100e+02 
       4.346395130680e-01       2.602316509363e+02 
       4.530987711464e-01       2.371852551059e+02 
       4.732776867689e-01       2.151457027836e+02 
       4.956081894595e-01       1.939449923986e+02 
       5.207142647667e-01       1.734374247651e+02 
       5.495392447776e-01       1.534375017914e+02 
       5.835913043760e-01       1.337214445576e+02 
       6.254539168556e-01       1.140085062816e+02 
       6.799344892978e-01       9.394481229933e+01 
       7.567835492124e-01       7.314739110570e+01 
       8.762872827653e-01       5.173312340124e+01 
       1.069111556900e+00       3.213902229774e+01 
       1.341672492056e+00       1.851303684684e+01 
       1.688956288667e+00       1.049987424230e+01 
       2.126269418174e+00       5.910968540571e+00 
       2.676814602404e+00       3.305686414401e+00 
       3.369909925628e+00       1.837591867707e+00 
       4.242465240830e+00       1.015886905610e+00 
       5.340947300334e+00       5.587912729048e-01 
       6.723854279444e+00       3.059401877250e-01 
       8.464831017594e+00       1.667859210782e-01 
       1.065659087459e+01       9.056295727132e-02 
