# Matter power spectrum P(k) at redshift z=2.5
# for k=2.38747e-07 to 11.9779 h/Mpc,
# number of wavenumbers equal to 139
#    1:k (h/Mpc)              2:P (Mpc/h)^3        
       2.387466534564e-07       1.098471677541e-01 
       3.005642290170e-07       1.363323319884e-01 
       3.783879457859e-07       1.692033132418e-01 
       4.763622004664e-07       2.099997909490e-01 
       5.997044793854e-07       2.606326751056e-01 
       7.549832086650e-07       3.234736137216e-01 
       9.504675468663e-07       4.014660808016e-01 
       1.196567747836e-06       4.982632485874e-01 
       1.506389544684e-06       6.183991018811e-01 
       1.896432077863e-06       7.675008096208e-01 
       2.387466534564e-06       9.525522995808e-01 
       3.005642290170e-06       1.182221382371e+00 
       3.783879457859e-06       1.467265745376e+00 
       4.763622004664e-06       1.821036828547e+00 
       5.997044793854e-06       2.260105178718e+00 
       7.549832086650e-06       2.805036558246e+00 
       9.504675468663e-06       3.481355136757e+00 
       1.196567747836e-05       4.320738825434e+00 
       1.506389544684e-05       5.362502645968e+00 
       1.896432077863e-05       6.655439402279e+00 
       2.387466534564e-05       8.260103476947e+00 
       3.005642290170e-05       1.025164393772e+01 
       3.783879457859e-05       1.272331810000e+01 
       4.763622004664e-05       1.579084707088e+01 
       5.997044793854e-05       1.959781128665e+01 
       7.549832086650e-05       2.432232706438e+01 
       9.504675468663e-05       3.018529370601e+01 
       1.196567747836e-04       3.746055247464e+01 
       1.506389544684e-04       4.648734509862e+01 
       1.896432077863e-04       5.768548443032e+01 
       2.387466534564e-04       7.157361836133e+01 
       3.005642290170e-04       8.879081515252e+01 
       3.783879457859e-04       1.101213103284e+02 
       4.763622004664e-04       1.365214553682e+02 
       5.997044793854e-04       1.691464876181e+02 
       7.549832086650e-04       2.093726159036e+02 
       9.504675468663e-04       2.588075405579e+02 
       1.196567747836e-03       3.192812475224e+02 
       1.506389544684e-03       3.928091594183e+02 
       1.896432077863e-03       4.815131300284e+02 
       2.387466534564e-03       5.874539824784e+02 
       3.005642290170e-03       7.123060022201e+02 
       3.783879457859e-03       8.568838335165e+02 
       4.763622004664e-03       1.020523434604e+03 
       5.997044793854e-03       1.200242661555e+03 
       7.549832086650e-03       1.389737894247e+03 
       9.504675468663e-03       1.578326028453e+03 
       1.196567747836e-02       1.749931400906e+03 
       1.506389544684e-02       1.882587946306e+03 
       1.896432077859e-02       1.949505899460e+03 
       2.387466511172e-02       1.924047048849e+03 
       3.005625399815e-02       1.791948529138e+03 
       3.781640022277e-02       1.571114827532e+03 
       4.691937479157e-02       1.334989958943e+03 
       5.451413547745e-02       1.187699568048e+03 
       6.003692917518e-02       1.106365599208e+03 
       6.460406133587e-02       1.050193332234e+03 
       6.868791223391e-02       1.004793612568e+03 
       7.250007628685e-02       9.641153861663e+02 
       7.615296656547e-02       9.251635692324e+02 
       7.971416695164e-02       8.863921623501e+02 
       8.322816009578e-02       8.470947153351e+02 
       8.672634576004e-02       8.071221957868e+02 
       9.023218132092e-02       7.667189544465e+02 
       9.376404347523e-02       7.264019306642e+02 
       9.733692638629e-02       6.868542555581e+02 
       1.009635022688e-01       6.488238553695e+02 
       1.046548119916e-01       6.130276102992e+02 
       1.084207304874e-01       5.800644926065e+02 
       1.122702894381e-01       5.503433644540e+02 
       1.162119062941e-01       5.240298405733e+02 
       1.202535499153e-01       5.010161071901e+02 
       1.244028621605e-01       4.809170339100e+02 
       1.286672481214e-01       4.630965693462e+02 
       1.330539435790e-01       4.467291916028e+02 
       1.375700656373e-01       4.308989105137e+02 
       1.422226507825e-01       4.147322069175e+02 
       1.470186834987e-01       3.975489855266e+02 
       1.519651178245e-01       3.790016814355e+02 
       1.570688937388e-01       3.591624380016e+02 
       1.623369499362e-01       3.385224002438e+02 
       1.677762343338e-01       3.178875741171e+02 
       1.733937135114e-01       2.981875896151e+02 
       1.791963821985e-01       2.802447100154e+02 
       1.851912738631e-01       2.645642125953e+02 
       1.913854734254e-01       2.512015110018e+02 
       1.977861330941e-01       2.397426480255e+02 
       2.044004923113e-01       2.294139745775e+02 
       2.112359027802e-01       2.193109382675e+02 
       2.182998595441e-01       2.086952162986e+02 
       2.256000390934e-01       1.972589920707e+02 
       2.331443454858e-01       1.852335951722e+02 
       2.409409655111e-01       1.732691769565e+02 
       2.489984339905e-01       1.621258481156e+02 
       2.573257104204e-01       1.523220517138e+02 
       2.659322683347e-01       1.439090817766e+02 
       2.748281990122e-01       1.364771237173e+02 
       2.840243315043e-01       1.293924373438e+02 
       2.935323714396e-01       1.221519444160e+02 
       3.033650617082e-01       1.146546454813e+02 
       3.135363689917e-01       1.072096451186e+02 
       3.240617012475e-01       1.002712615196e+02 
       3.349581627647e-01       9.409776558128e+01 
       3.462448554099e-01       8.858613145236e+01 
       3.579432373455e-01       8.339515103068e+01 
       3.700775540822e-01       7.824473635825e+01 
       3.826753615800e-01       7.313024849848e+01 
       3.957681677766e-01       6.826078716087e+01 
       4.093922281889e-01       6.380216393646e+01 
       4.235895443171e-01       5.970520854611e+01 
       4.384091323334e-01       5.579286816509e+01 
       4.539086569035e-01       5.197713526386e+01 
       4.701565656347e-01       4.832723258708e+01 
       4.872349212976e-01       4.492087469644e+01 
       5.052432245329e-01       4.171759056670e+01 
       5.243036716057e-01       3.863696259572e+01 
       5.445685396534e-01       3.567977937921e+01 
       5.662308090317e-01       3.287739211850e+01 
       5.895398586287e-01       3.020086090983e+01 
       6.148253839715e-01       2.761795329411e+01 
       6.425351707869e-01       2.513345296840e+01 
       6.732972861464e-01       2.272821847690e+01 
       7.080276020784e-01       2.037986301920e+01 
       7.481267291358e-01       1.807157980586e+01 
       7.958659582370e-01       1.577293754409e+01 
       8.552041485659e-01       1.344842940688e+01 
       9.336556362297e-01       1.104969050585e+01 
       1.046700142554e+00       8.530029776012e+00 
       1.225818724444e+00       5.934453382818e+00 
       1.510247658972e+00       3.643662764851e+00 
       1.898406336410e+00       2.113093682277e+00 
       2.389899427777e+00       1.209398848892e+00 
       3.008704934771e+00       6.861383872022e-01 
       3.787735098881e+00       3.862181966879e-01 
       4.768475969126e+00       2.158510092862e-01 
       6.003155573062e+00       1.198555846914e-01 
       7.557525101882e+00       6.615981271684e-02 
       9.514360401031e+00       3.632298341885e-02 
       1.197787008583e+01       1.984327914300e-02 
