# Matter power spectrum P(k) at redshift z=2.5
# for k=2.2963e-07 to 11.5242 h/Mpc,
# number of wavenumbers equal to 139
#    1:k (h/Mpc)              2:P (Mpc/h)^3        
       2.296296140743e-07       1.536481853801e-01 
       2.890865564586e-07       1.907732310392e-01 
       3.639384121338e-07       2.368685680963e-01 
       4.581713153633e-07       2.941016318948e-01 
       5.768035118660e-07       3.651635611059e-01 
       7.261525987002e-07       4.533957373954e-01 
       9.141719593440e-07       5.629468992141e-01 
       1.150874310368e-06       6.989682181987e-01 
       1.448864915103e-06       8.678555103542e-01 
       1.824012859880e-06       1.077549971031e+00 
       2.296296140743e-06       1.337911573240e+00 
       2.890865564586e-06       1.661182686645e+00 
       3.639384121338e-06       2.062563715173e+00 
       4.581713153633e-06       2.560927815483e+00 
       5.768035118660e-06       3.179708297378e+00 
       7.261525987002e-06       3.948000414763e+00 
       9.141719593440e-06       4.901929333275e+00 
       1.150874310368e-05       6.086348537402e+00 
       1.448864915103e-05       7.556948430762e+00 
       1.824012859880e-05       9.382874069904e+00 
       2.296296140743e-05       1.164997471144e+01 
       2.890865564586e-05       1.446483714827e+01 
       3.639384121338e-05       1.795979089027e+01 
       4.581713153633e-05       2.229911740624e+01 
       5.768035118660e-05       2.768674921780e+01 
       7.261525987002e-05       3.437580872959e+01 
       9.141719593440e-05       4.268041161082e+01 
       1.150874310368e-04       5.299024308213e+01 
       1.448864915103e-04       6.578850174651e+01 
       1.824012859880e-04       8.167387789807e+01 
       2.296296140743e-04       1.013872588677e+02 
       2.890865564586e-04       1.258437664252e+02 
       3.639384121338e-04       1.561704137485e+02 
       4.581713153633e-04       1.937489341719e+02 
       5.768035118660e-04       2.402619427291e+02 
       7.261525987002e-04       2.977383936956e+02 
       9.141719593440e-04       3.685915914298e+02 
       1.150874310368e-03       4.556408348705e+02 
       1.448864915103e-03       5.621060413824e+02 
       1.824012859880e-03       6.915546024190e+02 
       2.296296140743e-03       8.477433819958e+02 
       2.890865564586e-03       1.034269048261e+03 
       3.639384121338e-03       1.254003116741e+03 
       4.581713153633e-03       1.508263139229e+03 
       5.768035118660e-03       1.795562624348e+03 
       7.261525987002e-03       2.109937624306e+03 
       9.141719593440e-03       2.438857001239e+03 
       1.150874310368e-02       2.760838471055e+03 
       1.448864915103e-02       3.043463486141e+03 
       1.824012859744e-02       3.243643459239e+03 
       2.296295808704e-02       3.314263147841e+03 
       2.890746545626e-02       3.223082235031e+03 
       3.630477168053e-02       2.986392299888e+03 
       4.416964050359e-02       2.720493167689e+03 
       4.998547219420e-02       2.551236360209e+03 
       5.443847504569e-02       2.438473061825e+03 
       5.825800645232e-02       2.349762913914e+03 
       6.174095377016e-02       2.272181420926e+03 
       6.503021542214e-02       2.199544392033e+03 
       6.820585957905e-02       2.128529972615e+03 
       7.131790884535e-02       2.057334875788e+03 
       7.440026405790e-02       1.985116550431e+03 
       7.747742204134e-02       1.911714659135e+03 
       8.056804287574e-02       1.837479487835e+03 
       8.368698947287e-02       1.763135648386e+03 
       8.684656386075e-02       1.689653658093e+03 
       9.005729274543e-02       1.618119899479e+03 
       9.332844633788e-02       1.549603621515e+03 
       9.666839212468e-02       1.485027945993e+03 
       1.000848425343e-01       1.425053599526e+03 
       1.035850321023e-01       1.369984665839e+03 
       1.071758464114e-01       1.319708044728e+03 
       1.108639171865e-01       1.273676564287e+03 
       1.146556930984e-01       1.230946608839e+03 
       1.185574927978e-01       1.190277338478e+03 
       1.225755447546e-01       1.150292691943e+03 
       1.267160172077e-01       1.109695630849e+03 
       1.309850406911e-01       1.067504463432e+03 
       1.353887250404e-01       1.023264420245e+03 
       1.399331724159e-01       9.771757163245e+02 
       1.446244876283e-01       9.300863594653e+02 
       1.494687868930e-01       8.833269415919e+02 
       1.544722060360e-01       8.384082129384e+02 
       1.596409091072e-01       7.966492669282e+02 
       1.649810983161e-01       7.588305868017e+02 
       1.704990261812e-01       7.249703346827e+02 
       1.762010107645e-01       6.942999809653e+02 
       1.820934548550e-01       6.654746672319e+02 
       1.881828699541e-01       6.369908045138e+02 
       1.944759059181e-01       6.077011766919e+02 
       2.009793871168e-01       5.772402697429e+02 
       2.077003559886e-01       5.461590870347e+02 
       2.146461249147e-01       5.156698591349e+02 
       2.218243374085e-01       4.870872795134e+02 
       2.292430397314e-01       4.612204126865e+02 
       2.369107642228e-01       4.380101386638e+02 
       2.448366258815e-01       4.166009491567e+02 
       2.530304340864e-01       3.958300153766e+02 
       2.615028218181e-01       3.748859821662e+02 
       2.702653953815e-01       3.537465801778e+02 
       2.793309084776e-01       3.330970807945e+02 
       2.887134655894e-01       3.137757540408e+02 
       2.984287611308e-01       2.961498310047e+02 
       3.084943627716e-01       2.798873058287e+02 
       3.189300499796e-01       2.642880819717e+02 
       3.297582223586e-01       2.488874147974e+02 
       3.410043971854e-01       2.337947896741e+02 
       3.526978222033e-01       2.194622110604e+02 
       3.648722390363e-01       2.061459656884e+02 
       3.775668458023e-01       1.936469338217e+02 
       3.908275265785e-01       1.815905570257e+02 
       4.047084433858e-01       1.698677562774e+02 
       4.192741283136e-01       1.586680505460e+02 
       4.346022775526e-01       1.481081220508e+02 
       4.507875494853e-01       1.380400517132e+02 
       4.679468301061e-01       1.283051553620e+02 
       4.862266951073e-01       1.189429849831e+02 
       5.058142514612e-01       1.099946637537e+02 
       5.269533423329e-01       1.013584013528e+02 
       5.499695721385e-01       9.297686227000e+01 
       5.753104439663e-01       8.484990378826e+01 
       6.036126509074e-01       7.689971240802e+01 
       6.358209288137e-01       6.906756064831e+01 
       6.734112848707e-01       6.127395626084e+01 
       7.188413875769e-01       5.340734813724e+01 
       7.765340929722e-01       4.531696467335e+01 
       8.551791955759e-01       3.681131928803e+01 
       9.729843145416e-01       2.775663732123e+01 
       1.163651880160e+00       1.862303871639e+01 
       1.451325951624e+00       1.125280415938e+01 
       1.826473764109e+00       6.583221567593e+00 
       2.299387911357e+00       3.806861210095e+00 
       2.894757862286e+00       2.180061803470e+00 
       3.644284233821e+00       1.237562434390e+00 
       4.587882029758e+00       6.969962481439e-01 
       5.775801273576e+00       3.897467416828e-01 
       7.271302996778e+00       2.165249446939e-01 
       9.154028119499e+00       1.195796526589e-01 
       1.152423861992e+01       6.568272926685e-02 
