# Matter power spectrum P(k) at redshift z=1.5
# for k=1.82812e-07 to 11.5465 h/Mpc,
# number of wavenumbers equal to 140
#    1:k (h/Mpc)              2:P (Mpc/h)^3        
       1.828124027486e-07       2.677089465067e-01 
       2.301471794114e-07       3.359022281334e-01 
       2.897381326137e-07       4.214663286754e-01 
       3.647586979132e-07       5.288261024854e-01 
       4.592039939758e-07       6.635335432339e-01 
       5.781035772136e-07       8.325548990183e-01 
       7.277892840033e-07       1.044630923867e+00 
       9.162324240632e-07       1.310728895360e+00 
       1.153468281763e-06       1.644609773639e+00 
       1.452130531610e-06       2.063539830449e+00 
       1.828124027486e-06       2.589183548978e+00 
       2.301471794114e-06       3.248723962768e+00 
       2.897381326137e-06       4.076268368808e+00 
       3.647586979132e-06       5.114612088945e+00 
       4.592039939758e-06       6.417451466562e+00 
       5.781035772136e-06       8.052160482130e+00 
       7.277892840033e-06       1.010327446115e+01 
       9.162324240632e-06       1.267686080010e+01 
       1.153468281763e-05       1.590600230033e+01 
       1.452130531610e-05       1.995767574323e+01 
       1.828124027486e-05       2.504137966373e+01 
       2.301471794114e-05       3.141995391288e+01 
       2.897381326137e-05       3.942314346655e+01 
       3.647586979132e-05       4.946459384948e+01 
       4.592039939758e-05       6.206312915408e+01 
       5.781035772136e-05       7.786935772407e+01 
       7.277892840033e-05       9.769887177621e+01 
       9.162324240632e-05       1.225735417126e+02 
       1.153468281763e-04       1.537726155972e+02 
       1.452130531610e-04       1.928954370060e+02 
       1.828124027486e-04       2.419374234644e+02 
       2.301471794114e-04       3.033801975467e+02 
       2.897381326137e-04       3.802949302714e+02 
       3.647586979132e-04       4.764543668750e+02 
       4.592039939758e-04       5.964431472669e+02 
       5.781035772136e-04       7.457485531392e+02 
       7.277892840033e-04       9.308076653703e+02 
       9.162324240632e-04       1.158983726129e+03 
       1.153468281763e-03       1.438425132655e+03 
       1.452130531610e-03       1.777673951166e+03 
       1.828124027486e-03       2.184795524817e+03 
       2.301471794114e-03       2.665946537435e+03 
       2.897381326137e-03       3.223377616339e+03 
       3.647586979132e-03       3.852680901425e+03 
       4.592039939758e-03       4.539077847195e+03 
       5.781035772136e-03       5.253102986837e+03 
       7.277892840033e-03       5.945833862667e+03 
       9.162324240632e-03       6.544249184007e+03 
       1.153468281763e-02       6.948845571260e+03 
       1.452130531607e-02       7.039536223542e+03 
       1.828124011983e-02       6.703317546598e+03 
       2.301460178592e-02       5.901952114044e+03 
       2.895794233326e-02       4.774863702287e+03 
       3.595382463925e-02       3.720787079196e+03 
       4.183638276653e-02       3.163831506769e+03 
       4.610540968960e-02       2.913249953839e+03 
       4.962832856112e-02       2.769965453605e+03 
       5.277496819492e-02       2.668588845877e+03 
       5.571037596668e-02       2.581846928571e+03 
       5.852198417554e-02       2.495862605111e+03 
       6.126224992070e-02       2.403113995144e+03 
       6.396564618747e-02       2.299945547244e+03 
       6.665647714941e-02       2.185494062734e+03 
       6.935288095857e-02       2.061070561701e+03 
       7.206905494716e-02       1.929652556351e+03 
       7.481657459303e-02       1.795361078279e+03 
       7.760521653985e-02       1.662899805895e+03 
       8.044349411113e-02       1.536985104665e+03 
       8.333901798094e-02       1.421821657280e+03 
       8.629874611360e-02       1.320676359096e+03 
       8.932916107925e-02       1.235582431194e+03 
       9.243639825773e-02       1.167175484194e+03 
       9.562633992258e-02       1.114639412963e+03 
       9.890468505064e-02       1.075737642543e+03 
       1.022770015042e-01       1.046933942735e+03 
       1.057487651969e-01       1.023650566631e+03 
       1.093253895335e-01       1.000739861753e+03 
       1.130122475444e-01       9.732161689012e+02 
       1.168146885580e-01       9.371901956060e+02 
       1.207380508714e-01       8.907949474912e+02 
       1.247876716202e-01       8.347775977710e+02 
       1.289688948864e-01       7.724537254126e+02 
       1.332870789667e-01       7.089237932429e+02 
       1.377476036615e-01       6.497551984409e+02 
       1.423558783956e-01       5.995597427635e+02 
       1.471173519574e-01       5.608945134144e+02 
       1.520375246263e-01       5.337091885190e+02 
       1.571219634444e-01       5.153626942076e+02 
       1.623763213836e-01       5.012140566881e+02 
       1.678063611532e-01       4.858608080953e+02 
       1.734179843975e-01       4.649319917083e+02 
       1.792172670432e-01       4.368395125305e+02 
       1.852105015867e-01       4.035008425685e+02 
       1.914042471607e-01       3.693997747041e+02 
       1.978053883066e-01       3.393928243096e+02 
       2.044212035084e-01       3.164782760112e+02 
       2.112594447326e-01       3.005978776229e+02 
       2.183284294904e-01       2.888488784744e+02 
       2.256371472996e-01       2.770155907536e+02 
       2.331953829247e-01       2.619174791765e+02 
       2.410138594299e-01       2.433001468736e+02 
       2.491044049535e-01       2.237760415411e+02 
       2.574801482702e-01       2.067128546058e+02 
       2.661557497330e-01       1.937609005453e+02 
       2.751476762294e-01       1.838645198137e+02 
       2.844745315191e-01       1.743470994182e+02 
       2.941574570333e-01       1.632536580146e+02 
       3.042206233083e-01       1.509796082831e+02 
       3.146918393070e-01       1.395314348277e+02 
       3.256033168762e-01       1.302290052918e+02 
       3.369926419112e-01       1.224088372048e+02 
       3.489040246826e-01       1.144690788018e+02 
       3.613899328055e-01       1.059213685504e+02 
       3.745132573509e-01       9.776933666084e+01 
       3.883502354652e-01       9.076575291541e+01 
       4.029944685751e-01       8.431626622357e+01 
       4.185625640507e-01       7.770279395258e+01 
       4.352022457069e-01       7.129829069766e+01 
       4.531043309183e-01       6.550935578156e+01 
       4.725209707033e-01       5.989841321135e+01 
       4.937944343347e-01       5.436000096997e+01 
       5.174044590708e-01       4.914553396276e+01 
       5.440500290464e-01       4.400928342557e+01 
       5.747989728647e-01       3.898808294643e+01 
       6.113807202012e-01       3.399348873014e+01 
       6.568049799162e-01       2.896463039878e+01 
       7.167745078121e-01       2.378676087299e+01 
       8.030225492870e-01       1.836523536736e+01 
       9.394763414897e-01       1.279142396883e+01 
       1.156554735637e+00       7.863746462870e+00 
       1.453653437205e+00       4.564276334739e+00 
       1.829996864984e+00       2.616679108374e+00 
       2.303829393705e+00       1.488428687515e+00 
       2.900349368089e+00       8.407000970196e-01 
       3.651323522568e+00       4.718070408533e-01 
       4.596743969243e+00       2.632330101433e-01 
       5.786957794391e+00       1.460773270973e-01 
       7.285348224339e+00       8.066403605484e-02 
       9.171710013390e+00       4.434006045282e-02 
       1.154649880546e+01       2.427020137148e-02 
