# Matter power spectrum P(k) at redshift z=1.5
# for k=2.18992e-07 to 10.9903 h/Mpc,
# number of wavenumbers equal to 139
#    1:k (h/Mpc)              2:P (Mpc/h)^3        
       2.189916617858e-07       1.547974862836e-01 
       2.756941679932e-07       1.942020919444e-01 
       3.470783939701e-07       2.436373704003e-01 
       4.369458100537e-07       3.056566880295e-01 
       5.500821838536e-07       3.834633854266e-01 
       6.925124398285e-07       4.810762322758e-01 
       8.718215084836e-07       6.035369990952e-01 
       1.097558251579e-06       7.571708680981e-01 
       1.381743973837e-06       9.499131322463e-01 
       1.739512601257e-06       1.191719057517e+00 
       2.189916617858e-06       1.495078076339e+00 
       2.756941679932e-06       1.875658869401e+00 
       3.470783939701e-06       2.353118652681e+00 
       4.369458100537e-06       2.952118464109e+00 
       5.500821838536e-06       3.703596877457e+00 
       6.925124398285e-06       4.646367911423e+00 
       8.718215084836e-06       5.829125624840e+00 
       1.097558251579e-05       7.312958839306e+00 
       1.381743973837e-05       9.174505720320e+00 
       1.739512601257e-05       1.150991078960e+01 
       2.189916617858e-05       1.443978806992e+01 
       2.756941679932e-05       1.811544535117e+01 
       3.470783939701e-05       2.272668834159e+01 
       4.369458100537e-05       2.851160239927e+01 
       5.500821838536e-05       3.576880638874e+01 
       6.925124398285e-05       4.487279029148e+01 
       8.718215084836e-05       5.629308678708e+01 
       1.097558251579e-04       7.061818387599e+01 
       1.381743973837e-04       8.858525014370e+01 
       1.739512601257e-04       1.111168880177e+02 
       2.189916617858e-04       1.393661932712e+02 
       2.756941679932e-04       1.747712643175e+02 
       3.470783939701e-04       2.191197700887e+02 
       4.369458100537e-04       2.746229519892e+02 
       5.500821838536e-04       3.439961923552e+02 
       6.925124398285e-04       4.305400184002e+02 
       8.718215084836e-04       5.382118691933e+02 
       1.097558251579e-03       6.716757058834e+02 
       1.381743973837e-03       8.363074783653e+02 
       1.739512601257e-03       1.038099648351e+03 
       2.189916617858e-03       1.283356945254e+03 
       2.756941679932e-03       1.578106895265e+03 
       3.470783939701e-03       1.927160177833e+03 
       4.369458100537e-03       2.332666682650e+03 
       5.500821838536e-03       2.792070818639e+03 
       6.925124398285e-03       3.295446547996e+03 
       8.718215084836e-03       3.822329890934e+03 
       1.097558251579e-02       4.338386942383e+03 
       1.381743973837e-02       4.793038853708e+03 
       1.739512601131e-02       5.120763333516e+03 
       2.189916308216e-02       5.251697743688e+03 
       2.756830029675e-02       5.138917438923e+03 
       3.462387616696e-02       4.804088834533e+03 
       4.213384896853e-02       4.409714755038e+03 
       4.769112858967e-02       4.145650304452e+03 
       5.194409421082e-02       3.961669274522e+03 
       5.559101291834e-02       3.812163750473e+03 
       5.891604494498e-02       3.679009067456e+03 
       6.205587949844e-02       3.553755110310e+03 
       6.508707205457e-02       3.432068306814e+03 
       6.805743539145e-02       3.311767347668e+03 
       7.099936476377e-02       3.191981247441e+03 
       7.393626441601e-02       3.072711257841e+03 
       7.688595921448e-02       2.954551849697e+03 
       7.986264480171e-02       2.838473598988e+03 
       8.287806946592e-02       2.725631206159e+03 
       8.594228501652e-02       2.617184316234e+03 
       8.906414264269e-02       2.514131989152e+03 
       9.225163098899e-02       2.417168001812e+03 
       9.551211281457e-02       2.326568693412e+03 
       9.885249427335e-02       2.242125018085e+03 
       1.022793481088e-01       2.163131521549e+03 
       1.057990045083e-01       2.088442783226e+03 
       1.094176187481e-01       2.016602041540e+03 
       1.131412218594e-01       1.946038134441e+03 
       1.169757586898e-01       1.875311753938e+03 
       1.209271165163e-01       1.803374163187e+03 
       1.250011465650e-01       1.729784575342e+03 
       1.292036802590e-01       1.654826816428e+03 
       1.335405416580e-01       1.579476623550e+03 
       1.380175573204e-01       1.505202624702e+03 
       1.426405646627e-01       1.433629698175e+03 
       1.474154197910e-01       1.366138561403e+03 
       1.523480057188e-01       1.303505035070e+03 
       1.574442418448e-01       1.245683827600e+03 
       1.627100955391e-01       1.191815923113e+03 
       1.681515966725e-01       1.140484563549e+03 
       1.737748559107e-01       1.090169480233e+03 
       1.795860875902e-01       1.039764657300e+03 
       1.855916379893e-01       9.889662663324e+02 
       1.917980198161e-01       9.383535136157e+02 
       1.982119537530e-01       8.890983727626e+02 
       2.048404179376e-01       8.424154461280e+02 
       2.116907063314e-01       7.990031533471e+02 
       2.187704970352e-01       7.587481852696e+02 
       2.260879317810e-01       7.208444888343e+02 
       2.336517080650e-01       6.842682446533e+02 
       2.414711857234e-01       6.483460898497e+02 
       2.495565102028e-01       6.130771939039e+02 
       2.579187553866e-01       5.790079173136e+02 
       2.665700896458e-01       5.467592047777e+02 
       2.755239698495e-01       5.165569769187e+02 
       2.847953694856e-01       4.881074622253e+02 
       2.944010489114e-01       4.608832424468e+02 
       3.043598782639e-01       4.345521722141e+02 
       3.146932269304e-01       4.091701205874e+02 
       3.254254380792e-01       3.849918625452e+02 
       3.365844130955e-01       3.621312124842e+02 
       3.482023396378e-01       3.404332183125e+02 
       3.603166096288e-01       3.196584113126e+02 
       3.729709916744e-01       2.997176357059e+02 
       3.862171491082e-01       2.806692342052e+02 
       4.001166348400e-01       2.625316856537e+02 
       4.147435553232e-01       2.452042510549e+02 
       4.301881916077e-01       2.285816833178e+02 
       4.465620189693e-01       2.126366502614e+02 
       4.640048200944e-01       1.973444172292e+02 
       4.826950188041e-01       1.826283650253e+02 
       5.028651242643e-01       1.684183353625e+02 
       5.248255784248e-01       1.546616912644e+02 
       5.490029993037e-01       1.412799327923e+02 
       5.760042861943e-01       1.281842674674e+02 
       6.067298229677e-01       1.152723591696e+02 
       6.425860473009e-01       1.024072067005e+02 
       6.859142216696e-01       8.940765458226e+01 
       7.409264938989e-01       7.601982606701e+01 
       8.158962017071e-01       6.191605084609e+01 
       9.281571971108e-01       4.686179960852e+01 
       1.109834023539e+00       3.161214956156e+01 
       1.384093317392e+00       1.922976687160e+01 
       1.741853880494e+00       1.133045244497e+01 
       2.192857964158e+00       6.600979470598e+00 
       2.760644604871e+00       3.809451705174e+00 
       3.475445646003e+00       2.179813977897e+00 
       4.375326841062e+00       1.237759651475e+00 
       5.508210145119e+00       6.979531735406e-01 
       6.934425725192e+00       3.910792014239e-01 
       8.729924761644e+00       2.178684012854e-01 
       1.099032412548e+01       1.207337236409e-01 
