# Matter power spectrum P(k) at redshift z=0.5
# for k=1.87189e-07 to 11.8267 h/Mpc,
# number of wavenumbers equal to 140
#    1:k (h/Mpc)              2:P (Mpc/h)^3        
       1.871887108695e-07       1.225780390236e+00 
       2.356566249146e-07       1.524062119337e+00 
       2.966741135627e-07       1.894927803035e+00 
       3.734905805855e-07       2.356040038830e+00 
       4.701967829649e-07       2.929359443704e+00 
       5.919426786184e-07       3.642190533702e+00 
       7.452116804382e-07       4.528482106842e+00 
       9.381659216694e-07       5.630444057709e+00 
       1.181080919269e-06       7.000557623338e+00 
       1.486892782653e-06       8.704074789799e+00 
       1.871887108695e-06       1.082212588086e+01 
       2.356566249146e-06       1.345558330271e+01 
       2.966741135627e-06       1.672986540115e+01 
       3.734905805855e-06       2.080090910974e+01 
       4.701967829649e-06       2.586259562439e+01 
       5.919426786184e-06       3.215598234223e+01 
       7.452116804382e-06       3.998077991672e+01 
       9.381659216694e-06       4.970961941347e+01 
       1.181080919269e-05       6.180578583945e+01 
       1.486892782653e-05       7.684525637655e+01 
       1.871887108695e-05       9.554408049971e+01 
       2.356566249146e-05       1.187923816342e+02 
       2.966741135627e-05       1.476965518170e+02 
       3.734905805855e-05       1.836315546511e+02 
       4.701967829649e-05       2.283056424200e+02 
       5.919426786184e-05       2.838402065592e+02 
       7.452116804382e-05       3.528678544626e+02 
       9.381659216694e-05       4.386520015298e+02 
       1.181080919269e-04       5.452310021660e+02 
       1.486892782653e-04       6.775885772542e+02 
       1.871887108695e-04       8.418490685143e+02 
       2.356566249146e-04       1.045489341610e+03 
       2.966741135627e-04       1.297547036380e+03 
       3.734905805855e-04       1.608786177379e+03 
       4.701967829649e-04       1.991758913852e+03 
       5.919426786184e-04       2.460687673047e+03 
       7.452116804382e-04       3.031094975958e+03 
       9.381659216694e-04       3.719078161513e+03 
       1.181080919269e-03       4.539912717545e+03 
       1.486892782653e-03       5.505435196145e+03 
       1.871887108695e-03       6.620191377390e+03 
       2.356566249146e-03       7.876567170552e+03 
       2.966741135627e-03       9.249080479210e+03 
       3.734905805855e-03       1.068911560967e+04 
       4.701967829649e-03       1.212061548934e+04 
       5.919426786184e-03       1.343910483145e+04 
       7.452116804382e-03       1.451531271585e+04 
       9.381659216694e-03       1.520337743936e+04 
       1.181080919269e-02       1.535440859909e+04 
       1.486892782653e-02       1.483811684371e+04 
       1.871887108555e-02       1.358150370560e+04 
       2.356565908618e-02       1.163731207951e+04 
       2.966619052382e-02       9.271903778237e+03 
       3.725768213969e-02       6.999094090093e+03 
       4.532927941144e-02       5.476122623099e+03 
       5.129810344224e-02       4.776823539756e+03 
       5.586818189279e-02       4.381922004742e+03 
       5.978810123855e-02       4.092025563881e+03 
       6.336257379189e-02       3.843427389991e+03 
       6.673826165202e-02       3.610995480920e+03 
       6.999734076842e-02       3.384419753381e+03 
       7.319115009536e-02       3.160517211901e+03 
       7.635448232054e-02       2.939973973459e+03 
       7.951247857443e-02       2.725586761479e+03 
       8.268428963311e-02       2.521106585488e+03 
       8.588516918779e-02       2.330387264721e+03 
       8.912774266866e-02       2.156746059128e+03 
       9.242281347934e-02       2.002510532941e+03 
       9.577989547530e-02       1.868739853662e+03 
       9.920757604184e-02       1.755103332298e+03 
       1.027137702757e-01       1.659894549178e+03 
       1.063059028105e-01       1.580163867247e+03 
       1.099910401482e-01       1.511968258115e+03 
       1.137759882557e-01       1.450752029325e+03 
       1.176673652303e-01       1.391868959505e+03 
       1.216716557286e-01       1.331220745560e+03 
       1.257952518540e-01       1.265921414610e+03 
       1.300444838937e-01       1.194830385050e+03 
       1.344256434374e-01       1.118771508136e+03 
       1.389450008311e-01       1.040310693648e+03 
       1.436088185429e-01       9.630966767907e+02 
       1.484233617597e-01       8.909263261435e+02 
       1.533949073719e-01       8.267960966091e+02 
       1.585297523949e-01       7.721953109212e+02 
       1.638342228083e-01       7.268031009494e+02 
       1.693146837530e-01       6.886406861738e+02 
       1.749775519987e-01       6.546516066908e+02 
       1.808293115792e-01       6.216085905628e+02 
       1.868765334782e-01       5.871236156357e+02 
       1.931259002455e-01       5.504024177922e+02 
       1.995842364170e-01       5.123840879078e+02 
       2.062585456224e-01       4.751516840456e+02 
       2.131560552838e-01       4.408837294972e+02 
       2.202842698519e-01       4.108644947908e+02 
       2.276510336015e-01       3.850097535916e+02 
       2.352646041279e-01       3.620798537537e+02 
       2.431337378647e-01       3.404305082825e+02 
       2.512677892009e-01       3.188984360014e+02 
       2.596768251347e-01       2.973221892713e+02 
       2.683717578877e-01       2.763953005324e+02 
       2.773644985596e-01       2.570017929407e+02 
       2.866681357686e-01       2.395470113571e+02 
       2.962971443782e-01       2.237503873290e+02 
       3.062676309238e-01       2.089749468584e+02 
       3.165976243765e-01       1.947589574317e+02 
       3.273074235716e-01       1.810905354874e+02 
       3.384200162659e-01       1.682356820463e+02 
       3.499615897352e-01       1.563630768730e+02 
       3.619621596521e-01       1.453662201250e+02 
       3.744563535379e-01       1.350139357423e+02 
       3.874843986399e-01       1.251899245113e+02 
       4.010933836634e-01       1.159309962423e+02 
       4.153388925349e-01       1.072735842415e+02 
       4.302871514260e-01       9.915676634824e+01 
       4.460178961010e-01       9.149321342162e+01 
       4.626282696593e-01       8.425301437430e+01 
       4.802382260965e-01       7.742981620886e+01 
       4.989981881427e-01       7.098591114910e+01 
       5.191001732207e-01       6.487667905901e+01 
       5.407944233660e-01       5.907584975285e+01 
       5.644150865257e-01       5.355276029122e+01 
       5.904214063455e-01       4.826868353973e+01 
       6.194667774807e-01       4.318733318630e+01 
       6.525207132675e-01       3.826582596804e+01 
       6.910979231576e-01       3.345406869200e+01 
       7.377204998735e-01       2.869076099367e+01 
       7.969271992167e-01       2.389941735016e+01 
       8.776354506834e-01       1.899232349513e+01 
       9.985297973088e-01       1.392752338775e+01 
       1.194196722137e+00       9.016399568179e+00 
       1.489418486980e+00       5.234131694519e+00 
       1.874412425901e+00       2.949623061069e+00 
       2.359738941165e+00       1.649271130610e+00 
       2.970735307045e+00       9.163275920912e-01 
       3.739934169751e+00       5.061647154309e-01 
       4.708298164737e+00       2.781175085836e-01 
       5.927396205892e+00       1.520723367624e-01 
       7.462149709369e+00       8.277957657290e-02 
       9.394289895737e+00       4.487391707744e-02 
       1.182671027550e+01       2.423194983406e-02 
