# Matter power spectrum P(k) at redshift z=1
# for k=2.35834e-07 to 11.8318 h/Mpc,
# number of wavenumbers equal to 139
#    1:k (h/Mpc)              2:P (Mpc/h)^3        
       2.358337711875e-07       2.520969570073e-01 
       2.968971275072e-07       3.138322736511e-01 
       3.737713385075e-07       3.906857786700e-01 
       4.705502362474e-07       4.863597227104e-01 
       5.923876499376e-07       6.054629899777e-01 
       7.457718661395e-07       7.537331210964e-01 
       9.388711536842e-07       9.383127063959e-01 
       1.181968753774e-06       1.168093463813e+00 
       1.488010500072e-06       1.454144576821e+00 
       1.873294231557e-06       1.810245925737e+00 
       2.358337711875e-06       2.253551898020e+00 
       2.968971275072e-06       2.805417752909e+00 
       3.737713385075e-06       3.492428343551e+00 
       4.705502362474e-06       4.347678743922e+00 
       5.923876499376e-06       5.412368449507e+00 
       7.457718661395e-06       6.737785912795e+00 
       9.388711536842e-06       8.387778935345e+00 
       1.181968753774e-05       1.044182976752e+01 
       1.488010500072e-05       1.299888275819e+01 
       1.873294231557e-05       1.618210833774e+01 
       2.358337711875e-05       2.014483166806e+01 
       2.968971275072e-05       2.507790924233e+01 
       3.737713385075e-05       3.121890423334e+01 
       4.705502362474e-05       3.886349361676e+01 
       5.923876499376e-05       4.837963890860e+01 
       7.457718661395e-05       6.022516839419e+01 
       9.388711536842e-05       7.496954961369e+01 
       1.181968753774e-04       9.332076734976e+01 
       1.488010500072e-04       1.161583417519e+02 
       1.873294231557e-04       1.445735739766e+02 
       2.358337711875e-04       1.799179966722e+02 
       2.968971275072e-04       2.238605602405e+02 
       3.737713385075e-04       2.784530287580e+02 
       4.705502362474e-04       3.462010449067e+02 
       5.923876499376e-04       4.301351422027e+02 
       7.457718661395e-04       5.338720700035e+02 
       9.388711536842e-04       6.616534843306e+02 
       1.181968753774e-03       8.183454366838e+02 
       1.488010500072e-03       1.009364507290e+03 
       1.873294231557e-03       1.240444327015e+03 
       2.358337711875e-03       1.517128069100e+03 
       2.968971275072e-03       1.843947207670e+03 
       3.737713385075e-03       2.223194428791e+03 
       4.705502362474e-03       2.653235255641e+03 
       5.923876499376e-03       3.126288412743e+03 
       7.457718661395e-03       3.625750422153e+03 
       9.388711536842e-03       4.123391718843e+03 
       1.181968753774e-02       4.576681915284e+03 
       1.488010500072e-02       4.927487420821e+03 
       1.873294231554e-02       5.104908928626e+03 
       2.358337690978e-02       5.038454669909e+03 
       2.968955792626e-02       4.690416670121e+03 
       3.735617193060e-02       4.108263746182e+03 
       4.637119124615e-02       3.485378853993e+03 
       5.393351901545e-02       3.096723665118e+03 
       5.942489769055e-02       2.883722853108e+03 
       6.395943420560e-02       2.737343059528e+03 
       6.801101185851e-02       2.619237673397e+03 
       7.179135277721e-02       2.513365276481e+03 
       7.541271299256e-02       2.411822682931e+03 
       7.894248538378e-02       2.310556280616e+03 
       8.242497908515e-02       2.207741155510e+03 
       8.589144463389e-02       2.103030338877e+03 
       8.936521143554e-02       1.997117778948e+03 
       9.286454497164e-02       1.891415102894e+03 
       9.640434095670e-02       1.787766253029e+03 
       9.999718276479e-02       1.688176474830e+03 
       1.036540296201e-01       1.594556269546e+03 
       1.073846801822e-01       1.508491373318e+03 
       1.111980938538e-01       1.431052581687e+03 
       1.151026187562e-01       1.362657340483e+03 
       1.191061565772e-01       1.302992793487e+03 
       1.232162835571e-01       1.251008899330e+03 
       1.274403402642e-01       1.204991972928e+03 
       1.317854987025e-01       1.162731271314e+03 
       1.362588126826e-01       1.121785448886e+03 
       1.408672556824e-01       1.079838674532e+03 
       1.456177493141e-01       1.035103279494e+03 
       1.505171847669e-01       9.866873549274e+02 
       1.555724391033e-01       9.348209080107e+02 
       1.607903879578e-01       8.808447652521e+02 
       1.661779159713e-01       8.269234504895e+02 
       1.717419261518e-01       7.755298496368e+02 
       1.774893492680e-01       7.288300753200e+02 
       1.834271543197e-01       6.881320161642e+02 
       1.895623611008e-01       6.535425024646e+02 
       1.959020558427e-01       6.239275479014e+02 
       2.024534109163e-01       5.972145245982e+02 
       2.092237095562e-01       5.710069117353e+02 
       2.162203765701e-01       5.433734178261e+02 
       2.234510159968e-01       5.135401624183e+02 
       2.309234566934e-01       4.821608957392e+02 
       2.386458068682e-01       4.509787379468e+02 
       2.466265186434e-01       4.219978918579e+02 
       2.548744638391e-01       3.965580744953e+02 
       2.633990223427e-01       3.747560471388e+02 
       2.722101846667e-01       3.554830013244e+02 
       2.813186706516e-01       3.370660053839e+02 
       2.907360667352e-01       3.182039210963e+02 
       3.004749848577e-01       2.986659859623e+02 
       3.105492469164e-01       2.792878226263e+02 
       3.209740998153e-01       2.612591780774e+02 
       3.317664676430e-01       2.452332359674e+02 
       3.429452494890e-01       2.309153088020e+02 
       3.545316740354e-01       2.174066152566e+02 
       3.665497255958e-01       2.039910047904e+02 
       3.790266610601e-01       1.906774098136e+02 
       3.919936437788e-01       1.780167269209e+02 
       4.054865295608e-01       1.664280512512e+02 
       4.195468528618e-01       1.557691082544e+02 
       4.342230797302e-01       1.455803562855e+02 
       4.495722210481e-01       1.356452929868e+02 
       4.656619396649e-01       1.261489210549e+02 
       4.825733457522e-01       1.172853889687e+02 
       5.004047688297e-01       1.089435761582e+02 
       5.192769444019e-01       1.009196245125e+02 
       5.393402970961e-01       9.322006981010e+01 
       5.607854125298e-01       8.592220291296e+01 
       5.838585042032e-01       7.894895286174e+01 
       6.088849728434e-01       7.222001697387e+01 
       6.363065938282e-01       6.574665609652e+01 
       6.667427056465e-01       5.947811973751e+01 
       7.010959233280e-01       5.335741454372e+01 
       7.407455912452e-01       4.733982305263e+01 
       7.879265265945e-01       4.134660891952e+01 
       8.465297941477e-01       3.528504195196e+01 
       9.239320496529e-01       2.902873369125e+01 
       1.035316302078e+00       2.245345020756e+01 
       1.211619590206e+00       1.566776442547e+01 
       1.491938839449e+00       9.650137387904e+00 
       1.875253818103e+00       5.609590633476e+00 
       2.360749101024e+00       3.217883399911e+00 
       2.972006832026e+00       1.829916215355e+00 
       3.741534924760e+00       1.032523255873e+00 
       4.710313395896e+00       5.784873448544e-01 
       5.929933231608e+00       3.220269926343e-01 
       7.465343635514e+00       1.782137740715e-01 
       9.398310810524e+00       9.809735999414e-02 
       1.183177230731e+01       5.373176100379e-02 
