# Matter power spectrum P(k) at redshift z=2.5
# for k=2.06008e-07 to 10.3354 h/Mpc,
# number of wavenumbers equal to 139
#    1:k (h/Mpc)              2:P (Mpc/h)^3        
       2.060078579938e-07       2.240842415944e-01 
       2.593485274577e-07       2.783821061161e-01 
       3.265004517279e-07       3.458368889084e-01 
       4.110397156425e-07       4.296366435380e-01 
       5.174683432790e-07       5.337419204517e-01 
       6.514540471530e-07       6.630729516711e-01 
       8.201320545770e-07       8.237421899264e-01 
       1.032485084534e-06       1.023343195628e+00 
       1.299821710218e-06       1.271309522780e+00 
       1.636378581796e-06       1.579360567480e+00 
       2.060078579938e-06       1.962055444461e+00 
       2.593485274577e-06       2.437481072235e+00 
       3.265004517279e-06       3.028106980458e+00 
       4.110397156425e-06       3.761847230789e+00 
       5.174683432790e-06       4.673379621667e+00 
       6.514540471530e-06       5.805784491591e+00 
       8.201320545770e-06       7.212580509442e+00 
       1.032485084534e-05       8.960253536051e+00 
       1.299821710218e-05       1.113139780067e+01 
       1.636378581796e-05       1.382861736917e+01 
       2.060078579938e-05       1.717937125863e+01 
       2.593485274577e-05       2.134198921593e+01 
       3.265004517279e-05       2.651313857295e+01 
       4.110397156425e-05       3.293708738239e+01 
       5.174683432790e-05       4.091718658436e+01 
       6.514540471530e-05       5.083008403223e+01 
       8.201320545770e-05       6.314328419122e+01 
       1.032485084534e-04       7.843676916413e+01 
       1.299821710218e-04       9.742948056858e+01 
       1.636378581796e-04       1.210114818577e+02 
       2.060078579938e-04       1.502824894888e+02 
       2.593485274577e-04       1.865970140673e+02 
       3.265004517279e-04       2.316153059324e+02 
       4.110397156425e-04       2.873572318289e+02 
       5.174683432790e-04       3.562526573171e+02 
       6.514540471530e-04       4.411768378964e+02 
       8.201320545770e-04       5.454541891183e+02 
       1.032485084534e-03       6.728122190300e+02 
       1.299821710218e-03       8.272693963870e+02 
       1.636378581796e-03       1.012922470603e+03 
       2.060078579938e-03       1.233520901538e+03 
       2.593485274577e-03       1.491692671418e+03 
       3.265004517279e-03       1.787901055622e+03 
       4.110397156425e-03       2.119127793093e+03 
       5.174683432790e-03       2.477208721036e+03 
       6.514540471530e-03       2.847064921096e+03 
       8.201320545770e-03       3.205080666612e+03 
       1.032485084534e-02       3.517984075190e+03 
       1.299821710218e-02       3.743129544283e+03 
       1.636378581789e-02       3.832099167118e+03 
       2.060078547285e-02       3.741501407738e+03 
       2.593464436190e-02       3.455628392248e+03 
       3.262505981843e-02       3.018874452074e+03 
       4.037452302897e-02       2.572246952848e+03 
       4.667728640118e-02       2.295923239004e+03 
       5.129512843098e-02       2.134902162221e+03 
       5.514031008030e-02       2.018268647158e+03 
       5.859118948678e-02       1.921279446057e+03 
       6.181937372920e-02       1.833624756303e+03 
       6.491690874255e-02       1.750359596331e+03 
       6.793951435840e-02       1.669073335074e+03 
       7.092405479091e-02       1.588780870489e+03 
       7.389665929911e-02       1.509387555277e+03 
       7.687691443483e-02       1.431371135117e+03 
       7.988020889000e-02       1.355552599736e+03 
       8.291913015618e-02       1.282906494991e+03 
       8.600433946267e-02       1.214395869469e+03 
       8.914514291450e-02       1.150830159385e+03 
       9.234987718469e-02       1.092749158700e+03 
       9.562617738377e-02       1.040339228386e+03 
       9.898116743785e-02       9.933875161933e+02 
       1.024215979349e-01       9.512789010182e+02 
       1.059539473958e-01       9.130412791488e+02 
       1.095844974751e-01       8.774431134547e+02 
       1.133193891994e-01       8.431430541253e+02 
       1.171646651870e-01       8.088810767518e+02 
       1.211263013845e-01       7.736864269966e+02 
       1.252102309288e-01       7.370609920750e+02 
       1.294223621282e-01       6.990877431452e+02 
       1.337685921453e-01       6.604210081272e+02 
       1.382548176913e-01       6.221411155332e+02 
       1.428869438641e-01       5.854965333868e+02 
       1.476708921447e-01       5.515930897246e+02 
       1.526126084936e-01       5.211113467474e+02 
       1.577180724423e-01       4.941281136878e+02 
       1.629933080472e-01       4.700953618578e+02 
       1.684443975532e-01       4.479957936681e+02 
       1.740774986037e-01       4.266507274291e+02 
       1.798988658238e-01       4.051015206809e+02 
       1.859148776027e-01       3.829324245156e+02 
       1.921320689010e-01       3.603930811368e+02 
       1.985571709269e-01       3.382457922689e+02 
       2.051971585551e-01       3.173927550340e+02 
       2.120593064254e-01       2.984555179511e+02 
       2.191512547523e-01       2.815072601016e+02 
       2.264810860275e-01       2.660834011116e+02 
       2.340574140137e-01       2.514616747986e+02 
       2.418894867327e-01       2.370626095871e+02 
       2.499873055643e-01       2.227408826651e+02 
       2.583617631383e-01       2.087874609892e+02 
       2.670248034449e-01       1.956514005040e+02 
       2.759896085788e-01       1.835907473798e+02 
       2.852708178386e-01       1.725072716299e+02 
       2.948847866384e-01       1.620684541588e+02 
       3.048498949910e-01       1.519924299143e+02 
       3.151869184307e-01       1.422435934352e+02 
       3.259194784489e-01       1.329782769997e+02 
       3.370745953058e-01       1.243252384285e+02 
       3.486833741310e-01       1.162412236178e+02 
       3.607818666094e-01       1.085769448783e+02 
       3.734121668831e-01       1.012431304301e+02 
       3.866238241514e-01       9.426544916655e+01 
       4.004756899469e-01       8.768438562113e+01 
       4.150383719565e-01       8.146594572360e+01 
       4.303975499401e-01       7.554429208617e+01 
       4.466585424835e-01       6.989813934048e+01 
       4.639527311662e-01       6.453035483281e+01 
       4.824468160922e-01       5.941442752534e+01 
       5.023565178754e-01       5.451479220562e+01 
       5.239675042585e-01       4.981418645246e+01 
       5.476685241176e-01       4.528807360981e+01 
       5.740061239863e-01       4.090387236741e+01 
       6.037795838036e-01       3.663064727807e+01 
       6.382155218620e-01       3.242751855874e+01 
       6.793117413565e-01       2.824392380433e+01 
       7.305688966713e-01       2.401279747769e+01 
       7.986710163531e-01       1.964660483972e+01 
       8.974421909014e-01       1.506426802656e+01 
       1.054704256414e+00       1.037514646917e+01 
       1.302735624060e+00       6.316313475693e+00 
       1.638078371208e+00       3.651195121339e+00 
       2.062186080218e+00       2.085133858854e+00 
       2.596138358146e+00       1.180745640363e+00 
       3.268344551560e+00       6.635456258562e-01 
       4.114602010457e+00       3.703272128599e-01 
       5.179977030384e+00       2.053868088773e-01 
       6.521204716061e+00       1.132585552004e-01 
       8.209710332561e+00       6.212871902511e-02 
       1.033541296113e+01       3.391743808348e-02 
