# Matter power spectrum P(k) at redshift z=0.5
# for k=2.27178e-07 to 11.4015 h/Mpc,
# number of wavenumbers equal to 139
#    1:k (h/Mpc)              2:P (Mpc/h)^3        
       2.271780468130e-07       3.488476339674e-01 
       2.860002161347e-07       4.356580884659e-01 
       3.600529398706e-07       5.440712549582e-01 
       4.532797955943e-07       6.794629509485e-01 
       5.706454533265e-07       8.485467615974e-01 
       7.184000623175e-07       1.059706942147e+00 
       9.044120942860e-07       1.323414162450e+00 
       1.138587368231e-06       1.652744709127e+00 
       1.433396571413e-06       2.064028889986e+00 
       1.804539368931e-06       2.577660792822e+00 
       2.271780468130e-06       3.219109549238e+00 
       2.860002161347e-06       4.020182247108e+00 
       3.600529398706e-06       5.020601109519e+00 
       4.532797955943e-06       6.269973137486e+00 
       5.706454533265e-06       7.830249864291e+00 
       7.184000623175e-06       9.778799155620e+00 
       9.044120942860e-06       1.221224129988e+01 
       1.138587368231e-05       1.525123945939e+01 
       1.433396571413e-05       1.904648173336e+01 
       1.804539368931e-05       2.378615088724e+01 
       2.271780468130e-05       2.970525100861e+01 
       2.860002161347e-05       3.709725130709e+01 
       3.600529398706e-05       4.632861999432e+01 
       4.532797955943e-05       5.785696011379e+01 
       5.706454533265e-05       7.225362925726e+01 
       7.184000623175e-05       9.023193050002e+01 
       9.044120942860e-05       1.126822050587e+02 
       1.138587368231e-04       1.407154344273e+02 
       1.433396571413e-04       1.757172559481e+02 
       1.804539368931e-04       2.194145705282e+02 
       2.271780468130e-04       2.739570907308e+02 
       2.860002161347e-04       3.420160862286e+02 
       3.600529398706e-04       4.269019847451e+02 
       4.532797955943e-04       5.327010742715e+02 
       5.706454533265e-04       6.644291306068e+02 
       7.184000623175e-04       8.281965252866e+02 
       9.044120942860e-04       1.031375092037e+03 
       1.138587368231e-03       1.282746815609e+03 
       1.433396571413e-03       1.592583231978e+03 
       1.804539368931e-03       1.972554024660e+03 
       2.271780468130e-03       2.435344474257e+03 
       2.860002161347e-03       2.993855536357e+03 
       3.600529398706e-03       3.659722158615e+03 
       4.532797955943e-03       4.440890849329e+03 
       5.706454533265e-03       5.337851082353e+03 
       7.184000623175e-03       6.338166560045e+03 
       9.044120942860e-03       7.409109920623e+03 
       1.138587368231e-02       8.488416216107e+03 
       1.433396571413e-02       9.475073172292e+03 
       1.804539368758e-02       1.022626573191e+04 
       2.271780070970e-02       1.057537465640e+04 
       2.859866780290e-02       1.039449266860e+04 
       3.590808753419e-02       9.716304947661e+03 
       4.360416518600e-02       8.920926688035e+03 
       4.926311890327e-02       8.417113387509e+03 
       5.361396452440e-02       8.085027480362e+03 
       5.735477454293e-02       7.826898681344e+03 
       6.077038351915e-02       7.602490862840e+03 
       6.399859876220e-02       7.391802114194e+03 
       6.711692289355e-02       7.183583944076e+03 
       7.017390682465e-02       6.971356065046e+03 
       7.320252261301e-02       6.751779087930e+03 
       7.622663607204e-02       6.523873174548e+03 
       7.926445223581e-02       6.288547642024e+03 
       8.233048904597e-02       6.048220256914e+03 
       8.543677552054e-02       5.806431027574e+03 
       8.859361404045e-02       5.567414824363e+03 
       9.181008431891e-02       5.335630776739e+03 
       9.509438733138e-02       5.115269865670e+03 
       9.845408626036e-02       4.909773680804e+03 
       1.018962789495e-01       4.721404886571e+03 
       1.054277234706e-01       4.550911613925e+03 
       1.090549307618e-01       4.397329474552e+03 
       1.127842336173e-01       4.257966362833e+03 
       1.166218383686e-01       4.128613956518e+03 
       1.205738637103e-01       4.004019428844e+03 
       1.246463698880e-01       3.878618961389e+03 
       1.288453806509e-01       3.747472144676e+03 
       1.331768998313e-01       3.607251801304e+03 
       1.376469240472e-01       3.457061915831e+03 
       1.422614527893e-01       3.298823739582e+03 
       1.470264969948e-01       3.137028969236e+03 
       1.519480871098e-01       2.977814341427e+03 
       1.570322815790e-01       2.827522654303e+03 
       1.622851766610e-01       2.691094050516e+03 
       1.677129184442e-01       2.570713666679e+03 
       1.733217179196e-01       2.465111183642e+03 
       1.791178699584e-01       2.369789838153e+03 
       1.851077770337e-01       2.278287562268e+03 
       1.912979785255e-01       2.184262883865e+03 
       1.976951864545e-01       2.083801388684e+03 
       2.043063285099e-01       1.976997507044e+03 
       2.111385992807e-01       1.867942841228e+03 
       2.181995206698e-01       1.762909423015e+03 
       2.254970125902e-01       1.667463449264e+03 
       2.330394752122e-01       1.583871988715e+03 
       2.408358842817e-01       1.510090372070e+03 
       2.488959013769e-01       1.440932089229e+03 
       2.572300014395e-01       1.370988315572e+03 
       2.658496205512e-01       1.297767672093e+03 
       2.747673277622e-01       1.223038076539e+03 
       2.839970258912e-01       1.151292254268e+03 
       2.935541876809e-01       1.086336628934e+03 
       3.034561356437e-01       1.028532456072e+03 
       3.137223765333e-01       9.747964995938e+02 
       3.243750048891e-01       9.213849571409e+02 
       3.354391948834e-01       8.671198421413e+02 
       3.469438063029e-01       8.140574246680e+02 
       3.589221397366e-01       7.649270613944e+02 
       3.714128891620e-01       7.200988348124e+02 
       3.844613590765e-01       6.774377637114e+02 
       3.981210411664e-01       6.351056329374e+02 
       4.124556872398e-01       5.936825651649e+02 
       4.275420789951e-01       5.547711134945e+02 
       4.434737951794e-01       5.183183948066e+02 
       4.603664373027e-01       4.829022054018e+02 
       4.783650405181e-01       4.482411319480e+02 
       4.976548491730e-01       4.151764711704e+02 
       5.184774373548e-01       3.834734501540e+02 
       5.411556292582e-01       3.523922959659e+02 
       5.661335165740e-01       3.221830475805e+02 
       5.940436429364e-01       2.926505343729e+02 
       6.258258647454e-01       2.633712897813e+02 
       6.629510304656e-01       2.341974582454e+02 
       7.078732905135e-01       2.046068787169e+02 
       7.650201128649e-01       1.740468690983e+02 
       8.431124006901e-01       1.417581934882e+02 
       9.604320869595e-01       1.071908262056e+02 
       1.150455456227e+00       7.219548641162e+01 
       1.435810727355e+00       4.393733371514e+01 
       1.807019044087e+00       2.592632950411e+01 
       2.274896895591e+00       1.511890174646e+01 
       2.863925502445e+00       8.729020523123e+00 
       3.605468592512e+00       4.994718968270e+00 
       4.539016032539e+00       2.834888899779e+00 
       5.714282627905e+00       1.597251857675e+00 
       7.193855610443e+00       8.939547723681e-01 
       9.056527636765e+00       4.973012680031e-01 
       1.140149278454e+01       2.751130449848e-01 
