# Matter power spectrum P(k) at redshift z=0
# for k=2.15236e-07 to 10.8016 h/Mpc,
# number of wavenumbers equal to 139
#    1:k (h/Mpc)              2:P (Mpc/h)^3        
       2.152362358710e-07       9.415266319341e-01 
       2.709663668769e-07       1.173066435228e+00 
       3.411264450029e-07       1.461546401411e+00 
       4.294527502491e-07       1.820969228789e+00 
       5.406489804535e-07       2.268781151895e+00 
       6.806367403535e-07       2.826718773541e+00 
       8.568708886318e-07       3.521864148538e+00 
       1.078736536325e-06       4.387959331350e+00 
       1.358048838211e-06       5.467044193250e+00 
       1.709682192881e-06       6.811497004152e+00 
       2.152362358710e-06       8.486576820140e+00 
       2.709663668769e-06       1.057359106711e+01 
       3.411264450029e-06       1.317384204499e+01 
       4.294527502491e-06       1.641354385021e+01 
       5.406489804535e-06       2.044994826572e+01 
       6.806367403535e-06       2.547897672859e+01 
       8.568708886318e-06       3.174472836229e+01 
       1.078736536325e-05       3.955132466886e+01 
       1.358048838211e-05       4.927766399963e+01 
       1.709682192881e-05       6.139579839209e+01 
       2.152362358710e-05       7.649381770175e+01 
       2.709663668769e-05       9.530433783188e+01 
       3.411264450029e-05       1.187399483393e+02 
       4.294527502491e-05       1.479372857228e+02 
       5.406489804535e-05       1.843117648720e+02 
       6.806367403535e-05       2.296254154663e+02 
       8.568708886318e-05       2.860707051810e+02 
       1.078736536325e-04       3.563736178290e+02 
       1.358048838211e-04       4.439194420008e+02 
       1.709682192881e-04       5.529044204909e+02 
       2.152362358710e-04       6.885150885842e+02 
       2.709663668769e-04       8.571339667672e+02 
       3.411264450029e-04       1.066564256941e+03 
       4.294527502491e-04       1.326256747512e+03 
       5.406489804535e-04       1.647510495530e+03 
       6.806367403535e-04       2.043607968909e+03 
       8.568708886318e-04       2.529828867784e+03 
       1.078736536325e-03       3.123222666582e+03 
       1.358048838211e-03       3.841875333811e+03 
       1.709682192881e-03       4.703377099413e+03 
       2.152362358710e-03       5.722325119871e+03 
       2.709663668769e-03       6.906478096498e+03 
       3.411264450029e-03       8.251551351839e+03 
       4.294527502491e-03       9.734981237300e+03 
       5.406489804535e-03       1.130858637270e+04 
       6.806367403535e-03       1.289134894767e+04 
       8.568708886318e-03       1.436393587410e+04 
       1.078736536325e-02       1.556571910371e+04 
       1.358048838211e-02       1.629809562979e+04 
       1.709682192881e-02       1.634197729094e+04 
       2.152362356689e-02       1.550800392909e+04 
       2.709661029198e-02       1.374562351526e+04 
       3.410697016885e-02       1.130502879443e+04 
       4.266801330307e-02       8.863011556504e+03 
       5.078085898796e-02       7.348910573162e+03 
       5.658672583432e-02       6.651435864375e+03 
       6.121977367274e-02       6.239824244690e+03 
       6.528520214856e-02       5.934948383668e+03 
       6.903942905232e-02       5.670458754700e+03 
       7.261242538630e-02       5.416226224873e+03 
       7.607975545292e-02       5.157831940728e+03 
       7.948992536020e-02       4.889470959364e+03 
       8.287650670423e-02       4.610840582996e+03 
       8.626417634019e-02       4.325370937029e+03 
       8.967200310771e-02       4.038921310095e+03 
       9.311536344340e-02       3.758643621566e+03 
       9.660712055595e-02       3.491941927781e+03 
       1.001583831799e-01       3.245549478580e+03 
       1.037790119193e-01       3.024774496279e+03 
       1.074779674790e-01       2.832954831099e+03 
       1.112635561779e-01       2.671133401593e+03 
       1.151436065768e-01       2.537940812026e+03 
       1.191255986017e-01       2.429666988860e+03 
       1.232167590868e-01       2.340527654830e+03 
       1.274241330670e-01       2.263168337786e+03 
       1.317546372413e-01       2.189467158917e+03 
       1.362151001504e-01       2.111651972720e+03 
       1.408122923827e-01       2.023625726927e+03 
       1.455529493047e-01       1.922226011700e+03 
       1.504437882717e-01       1.808023250681e+03 
       1.554915219095e-01       1.685291404745e+03 
       1.607028688222e-01       1.561012502008e+03 
       1.660845629238e-01       1.443126256707e+03 
       1.716433624929e-01       1.338528553565e+03 
       1.773860599857e-01       1.251390449424e+03 
       1.833194936055e-01       1.182202736583e+03 
       1.894505616002e-01       1.127712454843e+03 
       1.957862402448e-01       1.081779216503e+03 
       2.023336064539e-01       1.037103670766e+03 
       2.090998659640e-01       9.875487524394e+02 
       2.160923880243e-01       9.303200263553e+02 
       2.233187475482e-01       8.669589161222e+02 
       2.307867757043e-01       8.024544255737e+02 
       2.385046199820e-01       7.427915872784e+02 
       2.464808148611e-01       6.921816569731e+02 
       2.547243643587e-01       6.513201826814e+02 
       2.632448379439e-01       6.173823342386e+02 
       2.720524816166e-01       5.856929154523e+02 
       2.811583463682e-01       5.523172186707e+02 
       2.905744368173e-01       5.161829439233e+02 
       3.003138835762e-01       4.793282153554e+02 
       3.103911439193e-01       4.450704479493e+02 
       3.208222366675e-01       4.155044057025e+02 
       3.316250189740e-01       3.901880360744e+02 
       3.428195150620e-01       3.668489579602e+02 
       3.544283101206e-01       3.434159175781e+02 
       3.664770268431e-01       3.196334385221e+02 
       3.789949079326e-01       2.968399513128e+02 
       3.920155359976e-01       2.762845819279e+02 
       4.055777336331e-01       2.578409889428e+02 
       4.197267027080e-01       2.404013181986e+02 
       4.345154854268e-01       2.232794885692e+02 
       4.500068645086e-01       2.068271154242e+02 
       4.662758722303e-01       1.916053271342e+02 
       4.834131587549e-01       1.774803227933e+02 
       5.015295973505e-01       1.639533787660e+02 
       5.207627099621e-01       1.509616129756e+02 
       5.412858396897e-01       1.387243071684e+02 
       5.633215876341e-01       1.271421476428e+02 
       5.871620876147e-01       1.160110299185e+02 
       6.132006602651e-01       1.053592124800e+02 
       6.419832340734e-01       9.513193108266e+01 
       6.742958548933e-01       8.520913925204e+01 
       7.113220039907e-01       7.553876310749e+01 
       7.549442651347e-01       6.599799466806e+01 
       8.083675256139e-01       5.646033810863e+01 
       8.775126548951e-01       4.675017000040e+01 
       9.743124204992e-01       3.667431347424e+01 
       1.123702189381e+00       2.624474686546e+01 
       1.365511782278e+00       1.651063710449e+01 
       1.712092625456e+00       9.561427417045e+00 
       2.155193588515e+00       5.438072801120e+00 
       2.713226750774e+00       3.068478354429e+00 
       3.415750103355e+00       1.719356305840e+00 
       4.300174605453e+00       9.572967109464e-01 
       5.413599085956e+00       5.299154801663e-01 
       6.815317458576e+00       2.917818628529e-01 
       8.579976338046e+00       1.598779568225e-01 
       1.080155024456e+01       8.720889668334e-02 
