# Matter power spectrum P(k) at redshift z=2.5
# for k=1.95146e-07 to 12.3264 h/Mpc,
# number of wavenumbers equal to 140
#    1:k (h/Mpc)              2:P (Mpc/h)^3        
       1.951458129818e-07       2.498165848778e-01 
       2.456740229680e-07       3.100496651170e-01 
       3.092852705321e-07       3.848054958350e-01 
       3.893670865665e-07       4.775856458586e-01 
       4.901841197948e-07       5.927359442881e-01 
       6.171052448676e-07       7.356500393363e-01 
       7.768894745153e-07       9.130220367779e-01 
       9.780459016228e-07       1.133160051732e+00 
       1.231286839454e-06       1.406375359666e+00 
       1.550098291396e-06       1.745465374704e+00 
       1.951458129818e-06       2.166313075380e+00 
       2.456740229680e-06       2.688630952333e+00 
       3.092852705321e-06       3.336884321664e+00 
       3.893670865665e-06       4.141437234995e+00 
       4.901841197948e-06       5.139974646157e+00 
       6.171052448676e-06       6.379267403110e+00 
       7.768894745153e-06       7.917362650222e+00 
       9.780459016228e-06       9.826302096823e+00 
       1.231286839454e-05       1.219549510617e+01 
       1.550098291396e-05       1.513590403854e+01 
       1.951458129818e-05       1.878523657677e+01 
       2.456740229680e-05       2.331438585103e+01 
       3.092852705321e-05       2.893541517564e+01 
       3.893670865665e-05       3.591145197212e+01 
       4.901841197948e-05       4.456893578031e+01 
       6.171052448676e-05       5.531275754383e+01 
       7.768894745153e-05       6.864492809977e+01 
       9.780459016228e-05       8.518751059191e+01 
       1.231286839454e-04       1.057106191859e+02 
       1.550098291396e-04       1.311662684956e+02 
       1.951458129818e-04       1.627286469718e+02 
       2.456740229680e-04       2.018407834947e+02 
       3.092852705321e-04       2.502662423184e+02 
       3.893670865665e-04       3.101419309070e+02 
       4.901841197948e-04       3.840238463559e+02 
       6.171052448676e-04       4.749117484400e+02 
       7.768894745153e-04       5.862334131374e+02 
       9.780459016228e-04       7.217689199819e+02 
       1.231286839454e-03       8.854996269920e+02 
       1.550098291396e-03       1.081343562627e+03 
       1.951458129818e-03       1.312643738288e+03 
       2.456740229680e-03       1.581266673277e+03 
       3.092852705321e-03       1.886451243333e+03 
       3.893670865665e-03       2.223419848277e+03 
       4.901841197948e-03       2.581613718411e+03 
       6.171052448676e-03       2.942883496249e+03 
       7.768894745153e-03       3.279854118745e+03 
       9.780459016228e-03       3.554732870958e+03 
       1.231286839454e-02       3.719560112496e+03 
       1.550098291395e-02       3.720332865730e+03 
       1.951458122388e-02       3.510367016687e+03 
       2.456733404388e-02       3.079861458809e+03 
       3.091751751487e-02       2.498540384154e+03 
       3.851689236610e-02       1.947594645989e+03 
       4.519420713488e-02       1.638536466984e+03 
       4.999633616156e-02       1.496432125900e+03 
       5.391242156917e-02       1.411989914704e+03 
       5.738837844840e-02       1.349715694318e+03 
       6.061927661626e-02       1.295583758087e+03 
       6.370681362607e-02       1.242857738602e+03 
       6.671131269315e-02       1.188132737548e+03 
       6.967207811820e-02       1.129930531430e+03 
       7.261663323411e-02       1.068076744885e+03 
       7.556540431012e-02       1.003338527743e+03 
       7.853430418091e-02       9.371435217291e+02 
       8.153625424521e-02       8.713171202118e+02 
       8.458212945156e-02       8.078262832695e+02 
       8.768137066224e-02       7.485387488076e+02 
       9.084239569147e-02       6.950162533622e+02 
       9.407288335517e-02       6.483571452050e+02 
       9.737997452558e-02       6.090950250599e+02 
       1.007704172340e-01       5.771510229479e+02 
       1.042506730070e-01       5.518325517997e+02 
       1.078269956885e-01       5.318746631811e+02 
       1.115054903217e-01       5.155332651622e+02 
       1.152921573308e-01       5.007499597872e+02 
       1.191929257282e-01       4.854072933675e+02 
       1.232136780813e-01       4.676669075279e+02 
       1.273602693107e-01       4.463369696359e+02 
       1.316385409535e-01       4.211663268391e+02 
       1.360543322340e-01       3.929474606029e+02 
       1.406134890896e-01       3.633516243403e+02 
       1.453218721767e-01       3.345144331124e+02 
       1.501853647993e-01       3.084905328596e+02 
       1.552098816562e-01       2.867436024976e+02 
       1.604013792672e-01       2.698058472360e+02 
       1.657658689233e-01       2.571661038012e+02 
       1.713094329893e-01       2.473962740941e+02 
       1.770382453808e-01       2.385205202159e+02 
       1.829585970324e-01       2.286075592036e+02 
       1.890769271736e-01       2.164492733836e+02 
       1.953998612449e-01       2.020353710272e+02 
       2.019342563124e-01       1.865268150631e+02 
       2.086872548916e-01       1.716791493640e+02 
       2.156663481829e-01       1.590075450410e+02 
       2.228794498553e-01       1.491242662866e+02 
       2.303349817147e-01       1.415345196568e+02 
       2.380419728788e-01       1.349482081649e+02 
       2.460101744648e-01       1.279861779023e+02 
       2.542501923256e-01       1.199549924224e+02 
       2.627736410689e-01       1.112012288960e+02 
       2.715933235195e-01       1.027553317862e+02 
       2.807234410158e-01       9.552825604542e+01 
       2.901798415508e-01       8.968151505687e+01 
       2.999803149346e-01       8.460897739954e+01 
       3.101449470510e-01       7.950214004867e+01 
       3.206965492127e-01       7.403528510027e+01 
       3.316611839996e-01       6.855832372940e+01 
       3.430688164434e-01       6.362483667669e+01 
       3.549541299508e-01       5.938587340056e+01 
       3.673575614279e-01       5.549903360040e+01 
       3.803266319971e-01       5.159822889941e+01 
       3.939176822081e-01       4.771711090389e+01 
       4.081981698040e-01       4.412898124723e+01 
       4.232497641026e-01       4.089196116051e+01 
       4.391725914019e-01       3.780384963256e+01 
       4.560911815955e-01       3.477356888150e+01 
       4.741629943046e-01       3.191562993523e+01 
       4.935909715301e-01       2.924764272634e+01 
       5.146425874318e-01       2.666680006003e+01 
       5.376797888467e-01       2.418369874627e+01 
       5.632080129539e-01       2.181239974525e+01 
       5.919603745340e-01       1.950008914205e+01 
       6.250506562951e-01       1.724667785053e+01 
       6.642704098989e-01       1.501696619156e+01 
       7.127114863036e-01       1.278264261135e+01 
       7.761768893434e-01       1.049945287711e+01 
       8.665204205508e-01       8.124859413934e+00 
       1.008213785391e+00       5.686780953988e+00 
       1.235562236153e+00       3.497569155989e+00 
       1.551868766969e+00       2.010664614648e+00 
       1.953607118725e+00       1.139738882484e+00 
       2.459445292042e+00       6.410054169634e-01 
       3.096258176839e+00       3.579843066680e-01 
       3.897958100298e+00       1.986495875247e-01 
       4.907238506574e+00       1.095910533820e-01 
       6.177847257661e+00       6.013684955434e-02 
       7.777448902852e+00       3.283776764459e-02 
       9.791228062731e+00       1.785006816831e-02 
       1.232642582084e+01       9.662379762118e-03 
