# Matter power spectrum P(k) at redshift z=2.5
# for k=1.70753e-07 to 10.7847 h/Mpc,
# number of wavenumbers equal to 140
#    1:k (h/Mpc)              2:P (Mpc/h)^3        
       1.707527251824e-07       2.532130824270e-01 
       2.149649448653e-07       3.173190456957e-01 
       2.706248317358e-07       3.976547174757e-01 
       3.406964777347e-07       4.983289733884e-01 
       4.289114535290e-07       6.244909329598e-01 
       5.399675282573e-07       7.825933180763e-01 
       6.797788428668e-07       9.807224857647e-01 
       8.557908596850e-07       1.229012014796e+00 
       1.077376860439e-06       1.540160999325e+00 
       1.356337107685e-06       1.930083558163e+00 
       1.707527251824e-06       2.418722776084e+00 
       2.149649448653e-06       3.031070706077e+00 
       2.706248317358e-06       3.798446595865e+00 
       3.406964777347e-06       4.760098696598e+00 
       4.289114535290e-06       5.965211561209e+00 
       5.399675282573e-06       7.475421440329e+00 
       6.797788428668e-06       9.367968333927e+00 
       8.557908596850e-06       1.173964568034e+01 
       1.077376860439e-05       1.471174933803e+01 
       1.356337107685e-05       1.843627809115e+01 
       1.707527251824e-05       2.310370126801e+01 
       2.149649448653e-05       2.895268746583e+01 
       2.706248317358e-05       3.628228564438e+01 
       3.406964777347e-05       4.546716886569e+01 
       4.289114535290e-05       5.697669520683e+01 
       5.399675282573e-05       7.139871100426e+01 
       6.797788428668e-05       8.946921500326e+01 
       8.557908596850e-05       1.121092063055e+02 
       1.077376860439e-04       1.404702174556e+02 
       1.356337107685e-04       1.759901124524e+02 
       1.707527251824e-04       2.204605507342e+02 
       2.149649448653e-04       2.761067911013e+02 
       2.706248317358e-04       3.456787294278e+02 
       3.406964777347e-04       4.325484879097e+02 
       4.289114535290e-04       5.408037223326e+02 
       5.399675282573e-04       6.753171729163e+02 
       6.797788428668e-04       8.417646905539e+02 
       8.557908596850e-04       1.046562000022e+03 
       1.077376860439e-03       1.296690955365e+03 
       1.356337107685e-03       1.599338912753e+03 
       1.707527251824e-03       1.961127489370e+03 
       2.149649448653e-03       2.386720451549e+03 
       2.706248317358e-03       2.876999260468e+03 
       3.406964777347e-03       3.426641241151e+03 
       4.289114535290e-03       4.020851891270e+03 
       5.399675282573e-03       4.631736691181e+03 
       6.797788428668e-03       5.214352825400e+03 
       8.557908596850e-03       5.703111010940e+03 
       1.077376860439e-02       6.010425614621e+03 
       1.356337107682e-02       6.033171305591e+03 
       1.707527233364e-02       5.678975872614e+03 
       2.149636450857e-02       4.927526991427e+03 
       2.704560011357e-02       3.918873199928e+03 
       3.353921055266e-02       3.013336912884e+03 
       3.892835313916e-02       2.553958509714e+03 
       4.285292967122e-02       2.350645256233e+03 
       4.610301918263e-02       2.235939393031e+03 
       4.901138250466e-02       2.155431974254e+03 
       5.172745204100e-02       2.086348108800e+03 
       5.433077202281e-02       2.017087012043e+03 
       5.686923241221e-02       1.941393993856e+03 
       5.937438697645e-02       1.856298787606e+03 
       6.186852783892e-02       1.761220257739e+03 
       6.436832001814e-02       1.657439690449e+03 
       6.688682671711e-02       1.547656414759e+03 
       6.943471205577e-02       1.435523939723e+03 
       7.202099270761e-02       1.325153783925e+03 
       7.465352757861e-02       1.220616344423e+03 
       7.733934794882e-02       1.125490101381e+03 
       8.008488645122e-02       1.042505732770e+03 
       8.289613963028e-02       9.733108416073e+02 
       8.577878554151e-02       9.183511875020e+02 
       8.873827009017e-02       8.768437482881e+02 
       9.177987111309e-02       8.468145180014e+02 
       9.490874628836e-02       8.252038779839e+02 
       9.812996909753e-02       8.080833172166e+02 
       1.014485558576e-01       7.910551376475e+02 
       1.048694860458e-01       7.698805762405e+02 
       1.083977176108e-01       7.412852307491e+02 
       1.120381986144e-01       7.037537738066e+02 
       1.157958763124e-01       6.580245238520e+02 
       1.196757046297e-01       6.070204947197e+02 
       1.236826508869e-01       5.551414094293e+02 
       1.278217025696e-01       5.071123924094e+02 
       1.320978748941e-01       4.667752413494e+02 
       1.365162198967e-01       4.361884690193e+02 
       1.410818377607e-01       4.152047129410e+02 
       1.457998910802e-01       4.015175675030e+02 
       1.506756227581e-01       3.911718404469e+02 
       1.557143782287e-01       3.796118770882e+02 
       1.609216326987e-01       3.632009935929e+02 
       1.663030241133e-01       3.406957784424e+02 
       1.718643925790e-01       3.138196188888e+02 
       1.776118270254e-01       2.864088621518e+02 
       1.835517199656e-01       2.625251230486e+02 
       1.896908313407e-01       2.445983411051e+02 
       1.960363626086e-01       2.324811034614e+02 
       2.025960424897e-01       2.236788306061e+02 
       2.093782261281e-01       2.146569888791e+02 
       2.163920098844e-01       2.028101431859e+02 
       2.236473646013e-01       1.880164222250e+02 
       2.311552909935e-01       1.725227513995e+02 
       2.389280018992e-01       1.591286558517e+02 
       2.469791375577e-01       1.491400739354e+02 
       2.553240219895e-01       1.416107113745e+02 
       2.639799711133e-01       1.342982883340e+02 
       2.729666667100e-01       1.256230602070e+02 
       2.823066151190e-01       1.159781251243e+02 
       2.920257161840e-01       1.070475748433e+02 
       3.021539773433e-01       9.988480306465e+01 
       3.127264211943e-01       9.389343639143e+01 
       3.237842544750e-01       8.774965899482e+01 
       3.353763955462e-01       8.109348058507e+01 
       3.475615016660e-01       7.477747000608e+01 
       3.604107059052e-01       6.939643151333e+01 
       3.740113825072e-01       6.443428820925e+01 
       3.884724374525e-01       5.931850352934e+01 
       4.039319205604e-01       5.437968821323e+01 
       4.205682773064e-01       4.993528231245e+01 
       4.386175031295e-01       4.561634512518e+01 
       4.584002490587e-01       4.135618917414e+01 
       4.803664760411e-01       3.735560484459e+01 
       5.051727139617e-01       3.341053031762e+01 
       5.338236837384e-01       2.956129041169e+01 
       5.679501144370e-01       2.573213375454e+01 
       6.103974074417e-01       2.188033206323e+01 
       6.665729224724e-01       1.791731474258e+01 
       7.476252538255e-01       1.377371037633e+01 
       8.761827085297e-01       9.532455391471e+00 
       1.080057423793e+00       5.824529791665e+00 
       1.357744461031e+00       3.368653898194e+00 
       1.709263876411e+00       1.925477260992e+00 
       2.151835607777e+00       1.092184876233e+00 
       2.709000528575e+00       6.152517269223e-01 
       3.410429605987e+00       3.444105183948e-01 
       4.293476496112e+00       1.916913369300e-01 
       5.405166665897e+00       1.061303532607e-01 
       6.804701670680e+00       5.847514418094e-02 
       8.566611852897e+00       3.207439301455e-02 
       1.078472535459e+01       1.752022923750e-02 
