# Matter power spectrum P(k) at redshift z=1.5
# for k=2.04187e-07 to 10.2477 h/Mpc,
# number of wavenumbers equal to 139
#    1:k (h/Mpc)              2:P (Mpc/h)^3        
       2.041865216954e-07       5.021775625442e-01 
       2.570556009082e-07       6.228268176891e-01 
       3.236138282273e-07       7.724623193444e-01 
       4.074056719634e-07       9.580480765593e-01 
       5.128933533438e-07       1.188221216155e+00 
       6.456944760648e-07       1.473693953148e+00 
       8.128811841731e-07       1.827752134794e+00 
       1.023356779525e-06       2.266873560438e+00 
       1.288329855076e-06       2.811494853298e+00 
       1.621911193328e-06       3.486962573695e+00 
       2.041865216954e-06       4.324712836177e+00 
       2.570556009082e-06       5.363734324545e+00 
       3.236138282273e-06       6.652382790111e+00 
       4.074056719634e-06       8.250631464902e+00 
       5.128933533438e-06       1.023286208956e+01 
       6.456944760648e-06       1.269132640918e+01 
       8.128811841731e-06       1.574043912459e+01 
       1.023356779525e-05       1.952210188114e+01 
       1.288329855076e-05       2.421230568569e+01 
       1.621911193328e-05       3.002931822739e+01 
       2.041865216954e-05       3.724383559323e+01 
       2.570556009082e-05       4.619156778656e+01 
       3.236138282273e-05       5.728883780890e+01 
       4.074056719634e-05       7.105190852324e+01 
       5.128933533438e-05       8.812091371751e+01 
       6.456944760648e-05       1.092894619790e+02 
       8.128811841731e-05       1.355412025861e+02 
       1.023356779525e-04       1.680948826978e+02 
       1.288329855076e-04       2.084596568476e+02 
       1.621911193328e-04       2.585025740182e+02 
       2.041865216954e-04       3.205301415521e+02 
       2.570556009082e-04       3.973854236516e+02 
       3.236138282273e-04       4.925609000813e+02 
       4.074056719634e-04       6.103247645022e+02 
       5.128933533438e-04       7.558540085314e+02 
       6.456944760648e-04       9.353617105987e+02 
       8.128811841731e-04       1.156200012900e+03 
       1.023356779525e-03       1.426914967090e+03 
       1.288329855076e-03       1.757211452683e+03 
       1.621911193328e-03       2.157718429398e+03 
       2.041865216954e-03       2.639355945553e+03 
       2.570556009082e-03       3.212170917920e+03 
       3.236138282273e-03       3.883543156835e+03 
       4.074056719634e-03       4.655452403867e+03 
       5.128933533438e-03       5.520543113178e+03 
       6.456944760648e-03       6.456930103846e+03 
       8.128811841731e-03       7.421813760665e+03 
       1.023356779525e-02       8.344418052377e+03 
       1.288329855076e-02       9.120618120992e+03 
       1.621911193154e-02       9.615645943059e+03 
       2.041864829133e-02       9.688662832340e+03 
       2.570426687928e-02       9.257600499492e+03 
       3.227019631410e-02       8.409262332353e+03 
       3.915324174045e-02       7.550347009754e+03 
       4.420268296319e-02       7.035927707348e+03 
       4.809194489089e-02       6.702774871571e+03 
       5.143934406460e-02       6.445908186252e+03 
       5.449747155952e-02       6.224052542750e+03 
       5.738881084592e-02       6.017418491944e+03 
       6.018235800440e-02       5.815323820193e+03 
       6.292138615248e-02       5.611934407241e+03 
       6.563530983716e-02       5.404504586760e+03 
       6.834543555441e-02       5.192504810611e+03 
       7.106802609027e-02       4.977080713621e+03 
       7.381605734664e-02       4.760620288547e+03 
       7.660028556982e-02       4.546339700457e+03 
       7.942992670017e-02       4.337858163585e+03 
       8.231310571002e-02       4.138763586569e+03 
       8.525716336435e-02       3.952190131777e+03 
       8.826887119132e-02       3.780436540210e+03 
       9.135458538364e-02       3.624656277374e+03 
       9.452035887857e-02       3.484650727291e+03 
       9.777202405786e-02       3.358797548539e+03 
       1.011152543422e-01       3.244144171062e+03 
       1.045556103355e-01       3.136695055088e+03 
       1.080985744908e-01       3.031906680424e+03 
       1.117495771715e-01       2.925366044770e+03 
       1.155140162533e-01       2.813572738291e+03 
       1.193972719285e-01       2.694674072702e+03 
       1.234047180533e-01       2.568956628574e+03 
       1.275417311632e-01       2.438904773482e+03 
       1.318136981457e-01       2.308727811484e+03 
       1.362260234643e-01       2.183407209234e+03 
       1.407841367774e-01       2.067475756310e+03 
       1.454935017545e-01       1.963840335413e+03 
       1.503596268746e-01       1.872969714254e+03 
       1.553880789738e-01       1.792699677222e+03 
       1.605845003017e-01       1.718789967889e+03 
       1.659546298396e-01       1.646196075396e+03 
       1.715043296311e-01       1.570762339761e+03 
       1.772396168837e-01       1.490755913034e+03 
       1.831667026178e-01       1.407536985424e+03 
       1.892920376773e-01       1.324923731418e+03 
       1.956223669816e-01       1.247429928156e+03 
       2.021647930055e-01       1.178173201615e+03 
       2.089268496262e-01       1.117461884814e+03 
       2.159165877034e-01       1.062768095003e+03 
       2.231426740706e-01       1.010164809019e+03 
       2.306145060370e-01       9.565474591289e+02 
       2.383423440705e-01       9.013672750050e+02 
       2.463374660855e-01       8.467014024318e+02 
       2.546123477570e-01       7.955487289319e+02 
       2.631808746030e-01       7.495814897403e+02 
       2.720585933292e-01       7.080302682754e+02 
       2.812630122705e-01       6.685244354334e+02 
       2.908139639250e-01       6.291726748405e+02 
       3.007340468739e-01       5.900577909008e+02 
       3.110491703304e-01       5.527594524009e+02 
       3.217892328692e-01       5.184623202790e+02 
       3.329889787073e-01       4.867130205770e+02 
       3.446890919704e-01       4.561424508243e+02 
       3.569376144630e-01       4.261579327243e+02 
       3.697918100584e-01       3.974055872820e+02 
       3.833206563607e-01       3.704981704289e+02 
       3.976082344249e-01       3.450260404803e+02 
       4.127584321550e-01       3.203316349349e+02 
       4.289016164689e-01       2.965201985543e+02 
       4.462043380598e-01       2.738719833722e+02 
       4.648838557007e-01       2.520740312899e+02 
       4.852305991859e-01       2.308877100355e+02 
       5.076442595946e-01       2.103980722471e+02 
       5.326944181022e-01       1.903849203474e+02 
       5.612278871407e-01       1.706830432383e+02 
       5.945708848958e-01       1.511113781457e+02 
       6.349382622823e-01       1.313786578503e+02 
       6.863301313279e-01       1.111113472076e+02 
       7.566343503180e-01       8.983983792223e+01 
       8.623894205513e-01       6.727224741829e+01 
       1.033729814104e+00       4.472416052717e+01 
       1.290491215561e+00       2.683980472709e+01 
       1.624155144613e+00       1.562952832688e+01 
       2.044685759260e+00       9.000623629274e+00 
       2.574106854439e+00       5.134645440662e+00 
       3.240608531726e+00       2.904453296066e+00 
       4.079684430267e+00       1.630374870874e+00 
       5.136018401364e+00       9.088454322156e-01 
       6.465864080920e+00       5.034368808546e-01 
       8.140040600677e+00       2.772635507189e-01 
       1.024770396523e+01       1.518953947012e-01 
