# Matter power spectrum P(k) at redshift z=2
# for k=1.6256e-07 to 10.2685 h/Mpc,
# number of wavenumbers equal to 140
#    1:k (h/Mpc)              2:P (Mpc/h)^3        
       1.625601898380e-07       3.230271443240e-01 
       2.046511539331e-07       4.047520131850e-01 
       2.576405382394e-07       5.071530210342e-01 
       3.243502206979e-07       6.354611668090e-01 
       4.083327351576e-07       7.962308755388e-01 
       5.140604567573e-07       9.976748210110e-01 
       6.471637722103e-07       1.250083456598e+00 
       8.147309184282e-07       1.566350685712e+00 
       1.025685456984e-06       1.962632524228e+00 
       1.291261486304e-06       2.459172399744e+00 
       1.625601898380e-06       3.081335242042e+00 
       2.046511539331e-06       3.860903186789e+00 
       2.576405382394e-06       4.837699068551e+00 
       3.243502206979e-06       6.061620605829e+00 
       4.083327351576e-06       7.595189150482e+00 
       5.140604567573e-06       9.516743099029e+00 
       6.471637722103e-06       1.192443890016e+01 
       8.147309184282e-06       1.494126365325e+01 
       1.025685456984e-05       1.872131461162e+01 
       1.291261486304e-05       2.345766480875e+01 
       1.625601898380e-05       2.939221362150e+01 
       2.046511539331e-05       3.682801944460e+01 
       2.576405382394e-05       4.614473255522e+01 
       3.243502206979e-05       5.781789289641e+01 
       4.083327351576e-05       7.244303167693e+01 
       5.140604567573e-05       9.076571529542e+01 
       6.471637722103e-05       1.137188827360e+02 
       8.147309184282e-05       1.424690223836e+02 
       1.025685456984e-04       1.784728374809e+02 
       1.291261486304e-04       2.235459117954e+02 
       1.625601898380e-04       2.799442174540e+02 
       2.046511539331e-04       3.504575800476e+02 
       2.576405382394e-04       4.385105866015e+02 
       3.243502206979e-04       5.482597801812e+02 
       4.083327351576e-04       6.846656199392e+02 
       5.140604567573e-04       8.535052807029e+02 
       6.471637722103e-04       1.061285118463e+03 
       8.147309184282e-04       1.315018784834e+03 
       1.025685456984e-03       1.621836830058e+03 
       1.291261486304e-03       1.988288073437e+03 
       1.625601898380e-03       2.419013465079e+03 
       2.046511539331e-03       2.914777595613e+03 
       2.576405382394e-03       3.470222337423e+03 
       3.243502206979e-03       4.071255122664e+03 
       4.083327351576e-03       4.692357652598e+03 
       5.140604567573e-03       5.294657185722e+03 
       6.471637722103e-03       5.825135734690e+03 
       8.147309184282e-03       6.217684614378e+03 
       1.025685456984e-02       6.397075001408e+03 
       1.291261486304e-02       6.288919174087e+03 
       1.625601893620e-02       5.842103680022e+03 
       2.046506866096e-02       5.070700335041e+03 
       2.575609643641e-02       4.105507150691e+03 
       3.211686020842e-02       3.219491487248e+03 
       3.778724727414e-02       2.712178542121e+03 
       4.185685155955e-02       2.466302905400e+03 
       4.516239626725e-02       2.308776455586e+03 
       4.809027961370e-02       2.184689953408e+03 
       5.080847075674e-02       2.073544573323e+03 
       5.340407964229e-02       1.966342045156e+03 
       5.592858344634e-02       1.859187403659e+03 
       5.841542898524e-02       1.750952755380e+03 
       6.088798620756e-02       1.642183989897e+03 
       6.336356754673e-02       1.534446414101e+03 
       6.585563935173e-02       1.429843859551e+03 
       6.837512200826e-02       1.330625283345e+03 
       7.093119585462e-02       1.238856553307e+03 
       7.353182273223e-02       1.156160589921e+03 
       7.618409568239e-02       1.083531892825e+03 
       7.889448038655e-02       1.021227142407e+03 
       8.166898593424e-02       9.687276424085e+02 
       8.451328799417e-02       9.247699641021e+02 
       8.743281903697e-02       8.874449390520e+02 
       9.043283519081e-02       8.543749171913e+02 
       9.351846617393e-02       8.229796776485e+02 
       9.669475275718e-02       7.908268611167e+02 
       9.996667492076e-02       7.560290520035e+02 
       1.033391730232e-01       7.176057705246e+02 
       1.068171637382e-01       6.757011772775e+02 
       1.104055521422e-01       6.315604100330e+02 
       1.141092410845e-01       5.872310124362e+02 
       1.179331388103e-01       5.450503806011e+02 
       1.218821656983e-01       5.070590120096e+02 
       1.259612609087e-01       4.745019940298e+02 
       1.301753896908e-01       4.475424909718e+02 
       1.345295520783e-01       4.252469254949e+02 
       1.390287936780e-01       4.058510247840e+02 
       1.436782192510e-01       3.872731554520e+02 
       1.484830097747e-01       3.677696704579e+02 
       1.534484436717e-01       3.465206734836e+02 
       1.585799228926e-01       3.238813541961e+02 
       1.638830045496e-01       3.011388409750e+02 
       1.693634388203e-01       2.798663045512e+02 
       1.750272138862e-01       2.611917089907e+02 
       1.808806087422e-01       2.453326129230e+02 
       1.869302548283e-01       2.315927563887e+02 
       1.931832075989e-01       2.187983007705e+02 
       1.996470293797e-01       2.059511743495e+02 
       2.063298851873e-01       1.927402706679e+02 
       2.132406536211e-01       1.795944613843e+02 
       2.203890555202e-01       1.672567840066e+02 
       2.277858038493e-01       1.562098818639e+02 
       2.354427792981e-01       1.463737922198e+02 
       2.433732374293e-01       1.372595635373e+02 
       2.515920550074e-01       1.284076971018e+02 
       2.601160255500e-01       1.197263495865e+02 
       2.689642174078e-01       1.114502431991e+02 
       2.781584121511e-01       1.038126983604e+02 
       2.877236472427e-01       9.679494040232e+01 
       2.976888957181e-01       9.019103876461e+01 
       3.080879280859e-01       8.385729995564e+01 
       3.189604198359e-01       7.782613828856e+01 
       3.303533948618e-01       7.217690140264e+01 
       3.423231357930e-01       6.688662526426e+01 
       3.549377550649e-01       6.186876976966e+01 
       3.682807199939e-01       5.709246899339e+01 
       3.824557867067e-01       5.257424397034e+01 
       3.975940683080e-01       4.829531824558e+01 
       4.138644309782e-01       4.421491806633e+01 
       4.314892534573e-01       4.031849226255e+01 
       4.507691642912e-01       3.658913541105e+01 
       4.721234798492e-01       3.299694613146e+01 
       4.961595330047e-01       2.951756568200e+01 
       5.237983980893e-01       2.611878210955e+01 
       5.565184474793e-01       2.276202345355e+01 
       5.968642986588e-01       1.939826118077e+01 
       6.495973780876e-01       1.596517921818e+01 
       7.244199912434e-01       1.239702603169e+01 
       8.414239896435e-01       8.724855070305e+00 
       1.029574930514e+00       5.399597792962e+00 
       1.292794525474e+00       3.116997320278e+00 
       1.627453462950e+00       1.774077784761e+00 
       2.048842151935e+00       1.002319168162e+00 
       2.579339449568e+00       5.625679355421e-01 
       3.247195978705e+00       3.138581371607e-01 
       4.087977534667e+00       1.741433121825e-01 
       5.146458801236e+00       9.613766257240e-02 
       6.479007765628e+00       5.282857810189e-02 
       8.156587519361e+00       2.890592384504e-02 
       1.026853530165e+01       1.575366450014e-02 
