# Matter power spectrum P(k) at redshift z=1.5
# for k=1.78183e-07 to 11.2544 h/Mpc,
# number of wavenumbers equal to 140
#    1:k (h/Mpc)              2:P (Mpc/h)^3        
       1.781826183557e-07       5.267538386366e-01 
       2.243186261880e-07       6.548437831062e-01 
       2.824004188469e-07       8.140811677332e-01 
       3.555210635876e-07       1.012040068721e+00 
       4.475745013785e-07       1.258136338591e+00 
       5.634629134566e-07       1.564075467741e+00 
       7.093577803540e-07       1.944409351579e+00 
       8.930285357416e-07       2.417228444931e+00 
       1.124256317102e-06       3.005022225131e+00 
       1.415354846970e-06       3.735748889656e+00 
       1.781826183557e-06       4.644165163567e+00 
       2.243186261880e-06       5.773479463334e+00 
       2.824004188469e-06       7.177407036537e+00 
       3.555210635876e-06       8.922724793808e+00 
       4.475745013785e-06       1.109244731091e+01 
       5.634629134566e-06       1.378977495279e+01 
       7.093577803540e-06       1.714300169636e+01 
       8.930285357416e-06       2.131161569234e+01 
       1.124256317102e-05       2.649388190706e+01 
       1.415354846970e-05       3.293626590334e+01 
       1.781826183557e-05       4.094514386595e+01 
       2.243186261880e-05       5.090134957280e+01 
       2.824004188469e-05       6.327823803460e+01 
       3.555210635876e-05       7.866410080341e+01 
       4.475745013785e-05       9.778995175598e+01 
       5.634629134566e-05       1.215639116400e+02 
       7.093577803540e-05       1.511136443902e+02 
       8.930285357416e-05       1.878385063457e+02 
       1.124256317102e-04       2.334731941571e+02 
       1.415354846970e-04       2.901645769373e+02 
       1.781826183557e-04       3.605628063510e+02 
       2.243186261880e-04       4.479262430143e+02 
       2.824004188469e-04       5.562364795193e+02 
       3.555210635876e-04       6.903138735836e+02 
       4.475745013785e-04       8.559150857052e+02 
       5.634629134566e-04       1.059783836700e+03 
       7.093577803540e-04       1.309619942670e+03 
       8.930285357416e-04       1.613932277646e+03 
       1.124256317102e-03       1.981717029329e+03 
       1.415354846970e-03       2.421776983924e+03 
       1.781826183557e-03       2.941385084275e+03 
       2.243186261880e-03       3.544286459729e+03 
       2.824004188469e-03       4.228110301193e+03 
       3.555210635876e-03       4.981129050687e+03 
       4.475745013785e-03       5.778235455715e+03 
       5.634629134566e-03       6.576907255278e+03 
       7.093577803540e-03       7.313476038778e+03 
       8.930285357416e-03       7.900526681120e+03 
       1.124256317102e-02       8.227714093845e+03 
       1.415354846969e-02       8.172160773326e+03 
       1.781826173480e-02       7.631606765205e+03 
       2.243177889455e-02       6.596341749985e+03 
       2.822759814533e-02       5.248595405854e+03 
       3.511074198308e-02       4.025679608335e+03 
       4.102819867754e-02       3.378116359744e+03 
       4.530082347760e-02       3.088765493305e+03 
       4.880577901836e-02       2.921067109296e+03 
       5.192654112784e-02       2.799464395805e+03 
       5.483250788097e-02       2.693701718054e+03 
       5.761269427849e-02       2.589067432709e+03 
       6.032019952371e-02       2.478070568606e+03 
       6.298976755485e-02       2.357488783871e+03 
       6.564580959766e-02       2.227056469933e+03 
       6.830649215486e-02       2.088685827705e+03 
       7.098600061601e-02       1.945837809137e+03 
       7.369587679804e-02       1.802913221737e+03 
       7.644585144742e-02       1.664645693002e+03 
       7.924438480117e-02       1.535527893893e+03 
       8.209903003296e-02       1.419321024523e+03 
       8.501668475984e-02       1.318688766335e+03 
       8.800376926286e-02       1.234971640324e+03 
       9.106635522625e-02       1.168089686817e+03 
       9.421026014720e-02       1.116546856739e+03 
       9.744111735199e-02       1.077519298606e+03 
       1.007644283160e-01       1.047044782156e+03 
       1.041856019275e-01       1.020367279284e+03 
       1.077099839998e-01       9.924975681757e+02 
       1.113428794596e-01       9.589948719391e+02 
       1.150895690572e-01       9.168556627844e+02 
       1.189553220547e-01       8.652652624223e+02 
       1.229454060906e-01       8.059092609570e+02 
       1.270650952531e-01       7.426345695967e+02 
       1.313196772767e-01       6.804837163629e+02 
       1.357144607141e-01       6.243899211957e+02 
       1.402547828871e-01       5.779492426492e+02 
       1.449460193920e-01       5.426019106281e+02 
       1.497935959221e-01       5.173493981968e+02 
       1.548030031529e-01       4.990013733547e+02 
       1.599798154314e-01       4.829636816213e+02 
       1.653297140066e-01       4.645741720903e+02 
       1.708585155381e-01       4.407330559711e+02 
       1.765722066346e-01       4.111491963122e+02 
       1.824769851976e-01       3.784190573066e+02 
       1.885793093968e-01       3.467246812119e+02 
       1.948859551859e-01       3.198226315312e+02 
       2.014040833906e-01       2.993943149118e+02 
       2.081413175895e-01       2.844694475655e+02 
       2.151058342612e-01       2.720622000447e+02 
       2.223064670350e-01       2.587852608132e+02 
       2.297528273570e-01       2.427586592411e+02 
       2.374554445288e-01       2.246316561638e+02 
       2.454259289234e-01       2.068673099021e+02 
       2.536771633070e-01       1.918050246198e+02 
       2.622235286800e-01       1.800250851978e+02 
       2.710811730344e-01       1.701608142648e+02 
       2.802683340771e-01       1.601872422692e+02 
       2.898057305753e-01       1.491574582215e+02 
       2.997170419134e-01       1.378458906541e+02 
       3.100295023200e-01       1.276784420570e+02 
       3.207746458951e-01       1.191578589731e+02 
       3.319892524258e-01       1.114894274066e+02 
       3.437165641667e-01       1.036959037419e+02 
       3.560078737092e-01       9.578709963620e+01 
       3.689246284126e-01       8.847791904922e+01 
       3.825412670502e-01       8.199377689464e+01 
       3.969491156154e-01       7.583018156765e+01 
       4.122618505376e-01       6.970727658825e+01 
       4.286233419367e-01       6.392658101631e+01 
       4.462192180666e-01       5.857893130368e+01 
       4.652944454106e-01       5.339049425856e+01 
       4.861810141301e-01       4.838322718548e+01 
       5.093433690168e-01       4.362117319473e+01 
       5.354566498949e-01       3.896626521808e+01 
       5.655493334369e-01       3.443429082523e+01 
       6.012812804043e-01       2.994598653027e+01 
       6.455287773254e-01       2.544751682193e+01 
       7.037154085782e-01       2.084725433931e+01 
       7.869601271485e-01       1.606242140123e+01 
       9.180919280204e-01       1.116647731951e+01 
       1.127679294606e+00       6.826650856090e+00 
       1.416892242059e+00       3.919112332330e+00 
       1.783705045452e+00       2.220921987907e+00 
       2.245551379806e+00       1.248991160815e+00 
       2.826981695394e+00       6.975947926298e-01 
       3.558959095009e+00       3.871954087452e-01 
       4.480464044243e+00       2.136855133775e-01 
       5.640570041927e+00       1.173126691854e-01 
       7.101056962787e+00       6.409466705700e-02 
       8.939701061050e+00       3.486305256686e-02 
       1.125441683960e+01       1.888481661316e-02 
