# Matter power spectrum P(k) at redshift z=0.5
# for k=1.58133e-07 to 12.5738 h/Mpc,
# number of wavenumbers equal to 141
#    1:k (h/Mpc)              2:P (Mpc/h)^3        
       1.581334956681e-07       1.665485674785e+00 
       1.990782761524e-07       2.078791349021e+00 
       2.506247007844e-07       2.594662646522e+00 
       3.155178046408e-07       3.238552172114e+00 
       3.972133821358e-07       4.042228826918e+00 
       5.000620206755e-07       5.045345252086e+00 
       6.295407853015e-07       6.297394245744e+00 
       7.925448923769e-07       7.860150676411e+00 
       9.977549050010e-07       9.810719367705e+00 
       1.256099004648e-06       1.224533931946e+01 
       1.581334956681e-06       1.528413193330e+01 
       1.990782761524e-06       1.907702745993e+01 
       2.506247007844e-06       2.381116196217e+01 
       3.155178046408e-06       2.972010952860e+01 
       3.972133821358e-06       3.709540481759e+01 
       5.000620206755e-06       4.630092356836e+01 
       6.295407853015e-06       5.779082890550e+01 
       7.925448923769e-06       7.213196548395e+01 
       9.977549050010e-06       9.003179973061e+01 
       1.256099004648e-05       1.123732714834e+02 
       1.581334956681e-05       1.402582504109e+02 
       1.990782761524e-05       1.750616896823e+02 
       2.506247007844e-05       2.184990466613e+02 
       3.155178046408e-05       2.727100955323e+02 
       3.972133821358e-05       3.403628697979e+02 
       5.000620206755e-05       4.247820810193e+02 
       6.295407853015e-05       5.301068158022e+02 
       7.925448923769e-05       6.614822966068e+02 
       9.977549050010e-05       8.252893658138e+02 
       1.256099004648e-04       1.029411915456e+03 
       1.581334956681e-04       1.283534640180e+03 
       1.990782761524e-04       1.599448007801e+03 
       2.506247007844e-04       1.991310421629e+03 
       3.155178046408e-04       2.475778058756e+03 
       3.972133821358e-04       3.071870898840e+03 
       5.000620206755e-04       3.800430297801e+03 
       6.295407853015e-04       4.683065679193e+03 
       7.925448923769e-04       5.740465205469e+03 
       9.977549050010e-04       6.989513624313e+03 
       1.256099004648e-03       8.438251943717e+03 
       1.581334956681e-03       1.007901428384e+04 
       1.990782761524e-03       1.188058237719e+04 
       2.506247007844e-03       1.378076745435e+04 
       3.155178046408e-03       1.568208883043e+04 
       3.972133821358e-03       1.744939632912e+04 
       5.000620206755e-03       1.891586034233e+04 
       6.295407853015e-03       1.989461315096e+04 
       7.925448923769e-03       2.019494655874e+04 
       9.977549050010e-03       1.964111854168e+04 
       1.256099004648e-02       1.809930403292e+04 
       1.581334956674e-02       1.553143831149e+04 
       1.990782730162e-02       1.210366433510e+04 
       2.506226961899e-02       8.330926065058e+03 
       3.152771432852e-02       5.080657341674e+03 
       3.901789138143e-02       3.192078485415e+03 
       4.511171441275e-02       2.599856063059e+03 
       4.957601480762e-02       2.445004136705e+03 
       5.329302243429e-02       2.393270045681e+03 
       5.662871738643e-02       2.355389236746e+03 
       5.974906593586e-02       2.298179248520e+03 
       6.274307757239e-02       2.208391272249e+03 
       6.566462930867e-02       2.083281852297e+03 
       6.854936379410e-02       1.926968468996e+03 
       7.142254311623e-02       1.748160504320e+03 
       7.430310296784e-02       1.558160423335e+03 
       7.720592012494e-02       1.368947055363e+03 
       8.014316295817e-02       1.191471539611e+03 
       8.312513742859e-02       1.034379923813e+03 
       8.616083931527e-02       9.033269429934e+02 
       8.925832712744e-02       8.009018249537e+02 
       9.242498109234e-02       7.270179913659e+02 
       9.566768721776e-02       6.794906664669e+02 
       9.899297056360e-02       6.545147858453e+02 
       1.024070931510e-01       6.468908738248e+02 
       1.059161266658e-01       6.500852539783e+02 
       1.095260068295e-01       6.564340890489e+02 
       1.132425742168e-01       6.578539487665e+02 
       1.170716049380e-01       6.472060370168e+02 
       1.210188337084e-01       6.200304936841e+02 
       1.250899712326e-01       5.759556534155e+02 
       1.292907174319e-01       5.190042494169e+02 
       1.336267717839e-01       4.564329110484e+02 
       1.381038418652e-01       3.964857819036e+02 
       1.427276510812e-01       3.460364003157e+02 
       1.475039464909e-01       3.090704654149e+02 
       1.524385075934e-01       2.863149698442e+02 
       1.575371569134e-01       2.756086644714e+02 
       1.628057732052e-01       2.725016686889e+02 
       1.682503080834e-01       2.711029847717e+02 
       1.738768068814e-01       2.655893389888e+02 
       1.796914345321e-01       2.523009953552e+02 
       1.857005072732e-01       2.313415458198e+02 
       1.919105309899e-01       2.063794871670e+02 
       1.983282470418e-01       1.825584762583e+02 
       2.049606864766e-01       1.639165632100e+02 
       2.118152336304e-01       1.518480407462e+02 
       2.188997002554e-01       1.450043426896e+02 
       2.262224115263e-01       1.402275985993e+02 
       2.337923055705e-01       1.341836995968e+02 
       2.416190485703e-01       1.251817438234e+02 
       2.497131680252e-01       1.140157351806e+02 
       2.580862074871e-01       1.030362602003e+02 
       2.667509070340e-01       9.425060354127e+01 
       2.757214150123e-01       8.803545812929e+01 
       2.850135382506e-01       8.321629725860e+01 
       2.946450401804e-01       7.821167518953e+01 
       3.046359992936e-01       7.234314420080e+01 
       3.150092444388e-01       6.620050489016e+01 
       3.257908890459e-01       6.077458365385e+01 
       3.370109941531e-01       5.639016312699e+01 
       3.487044011054e-01       5.254500499038e+01 
       3.609117905770e-01       4.864454530889e+01 
       3.736810476196e-01       4.467440254695e+01 
       3.870690467304e-01       4.101558899056e+01 
       4.011440230069e-01       3.780393879846e+01 
       4.159887763069e-01       3.480569864972e+01 
       4.317050840090e-01       3.186564993368e+01 
       4.484199084373e-01       2.909350360509e+01 
       4.662943399269e-01       2.654823214060e+01 
       4.855368359053e-01       2.412966974881e+01 
       5.064234399539e-01       2.181427727654e+01 
       5.293297944443e-01       1.963339602426e+01 
       5.547840032115e-01       1.754511830155e+01 
       5.835583465832e-01       1.553682163317e+01 
       6.168379537029e-01       1.359207690244e+01 
       6.565529452221e-01       1.168556110447e+01 
       7.060851467018e-01       9.790022829947e+00 
       7.718912071270e-01       7.873423036161e+00 
       8.673242911512e-01       5.910898457970e+00 
       1.019262416092e+00       3.961037324809e+00 
       1.258919275867e+00       2.334484818917e+00 
       1.582977252739e+00       1.307650701917e+00 
       1.992818834848e+00       7.260183134993e-01 
       2.508810173053e+00       4.009193021225e-01 
       3.158404880181e+00       2.203047397138e-01 
       3.976196164395e+00       1.205087921349e-01 
       5.005734393635e+00       6.564259312623e-02 
       6.301846232839e+00       3.561676909137e-02 
       7.933554363741e+00       1.925448883962e-02 
       9.987753194364e+00       1.037300634766e-02 
       1.257383630311e+01       5.569717760135e-03 
