# Matter power spectrum P(k) at redshift z=2
# for k=2.06008e-07 to 10.3354 h/Mpc,
# number of wavenumbers equal to 139
#    1:k (h/Mpc)              2:P (Mpc/h)^3        
       2.060078579938e-07       3.018491229143e-01 
       2.593485274577e-07       3.749901999739e-01 
       3.265004517279e-07       4.658540950987e-01 
       4.110397156425e-07       5.787352252158e-01 
       5.174683432790e-07       7.189685870699e-01 
       6.514540471530e-07       8.931819009854e-01 
       8.201320545770e-07       1.109608849393e+00 
       1.032485084534e-06       1.378478217267e+00 
       1.299821710218e-06       1.712497323772e+00 
       1.636378581796e-06       2.127452594669e+00 
       2.060078579938e-06       2.642955653358e+00 
       2.593485274577e-06       3.283370194344e+00 
       3.265004517279e-06       4.078963436708e+00 
       4.110397156425e-06       5.067336565454e+00 
       5.174683432790e-06       6.295201741339e+00 
       6.514540471530e-06       7.820589616900e+00 
       8.201320545770e-06       9.715591598765e+00 
       1.032485084534e-05       1.206976627684e+01 
       1.299821710218e-05       1.499437063655e+01 
       1.636378581796e-05       1.862761534140e+01 
       2.060078579938e-05       2.314119102292e+01 
       2.593485274577e-05       2.874837125658e+01 
       3.265004517279e-05       3.571406971967e+01 
       4.110397156425e-05       4.436731608703e+01 
       5.174683432790e-05       5.511671921713e+01 
       6.514540471530e-05       6.846960677358e+01 
       8.201320545770e-05       8.505566467014e+01 
       1.032485084534e-04       1.056560340383e+02 
       1.299821710218e-04       1.312389304918e+02 
       1.636378581796e-04       1.630028672743e+02 
       2.060078579938e-04       2.024283698131e+02 
       2.593485274577e-04       2.513384412158e+02 
       3.265004517279e-04       3.119666030382e+02 
       4.110397156425e-04       3.870285653343e+02 
       5.174683432790e-04       4.797889779610e+02 
       6.514540471530e-04       5.941085106498e+02 
       8.201320545770e-04       7.344509274762e+02 
       1.032485084534e-03       9.058286429291e+02 
       1.299821710218e-03       1.113662859437e+03 
       1.636378581796e-03       1.363492657197e+03 
       2.060078579938e-03       1.660368120531e+03 
       2.593485274577e-03       2.007814277559e+03 
       3.265004517279e-03       2.406462320494e+03 
       4.110397156425e-03       2.852246032060e+03 
       5.174683432790e-03       3.334177546552e+03 
       6.514540471530e-03       3.831961140689e+03 
       8.201320545770e-03       4.313811304895e+03 
       1.032485084534e-02       4.734946348073e+03 
       1.299821710218e-02       5.037968153736e+03 
       1.636378581789e-02       5.157709672849e+03 
       2.060078547285e-02       5.035769054676e+03 
       2.593464436190e-02       4.651004446791e+03 
       3.262505981843e-02       4.063166909613e+03 
       4.037452302897e-02       3.462041052620e+03 
       4.667728640118e-02       3.090130983596e+03 
       5.129512843098e-02       2.873409215788e+03 
       5.514031008030e-02       2.716429657622e+03 
       5.859118948678e-02       2.585889814023e+03 
       6.181937372920e-02       2.467913493502e+03 
       6.491690874255e-02       2.355845134038e+03 
       6.793951435840e-02       2.246440260103e+03 
       7.092405479091e-02       2.138372957509e+03 
       7.389665929911e-02       2.031515819711e+03 
       7.687691443483e-02       1.926511909838e+03 
       7.988020889000e-02       1.824466173866e+03 
       8.291913015618e-02       1.726690254244e+03 
       8.600433946267e-02       1.634480388926e+03 
       8.914514291450e-02       1.548925985232e+03 
       9.234987718469e-02       1.470753554166e+03 
       9.562617738377e-02       1.400213954769e+03 
       9.898116743785e-02       1.337020688274e+03 
       1.024215979349e-01       1.280345837673e+03 
       1.059539473958e-01       1.228881026359e+03 
       1.095844974751e-01       1.180968727191e+03 
       1.133193891994e-01       1.134803573397e+03 
       1.171646651870e-01       1.088689673445e+03 
       1.211263013845e-01       1.041320472095e+03 
       1.252102309288e-01       9.920255439792e+02 
       1.294223621282e-01       9.409165670722e+02 
       1.337685921453e-01       8.888741994679e+02 
       1.382548176913e-01       8.373525054292e+02 
       1.428869438641e-01       7.880318068690e+02 
       1.476708921447e-01       7.424004660552e+02 
       1.526126084936e-01       7.013744626447e+02 
       1.577180724423e-01       6.650571754182e+02 
       1.629933080472e-01       6.327110034958e+02 
       1.684443975532e-01       6.029667345693e+02 
       1.740774986037e-01       5.742379743833e+02 
       1.798988658238e-01       5.452344557008e+02 
       1.859148776027e-01       5.153966136634e+02 
       1.921320689010e-01       4.850604472713e+02 
       1.985571709269e-01       4.552519556633e+02 
       2.051971585551e-01       4.271854234454e+02 
       2.120593064254e-01       4.016974098220e+02 
       2.191512547523e-01       3.788863972874e+02 
       2.264810860275e-01       3.581271104488e+02 
       2.340574140137e-01       3.384474294482e+02 
       2.418894867327e-01       3.190674323576e+02 
       2.499873055643e-01       2.997915230306e+02 
       2.583617631383e-01       2.810113279984e+02 
       2.670248034449e-01       2.633312352422e+02 
       2.759896085788e-01       2.470985555665e+02 
       2.852708178386e-01       2.321810754586e+02 
       2.948847866384e-01       2.181312575410e+02 
       3.048498949910e-01       2.045697298064e+02 
       3.151869184307e-01       1.914485708871e+02 
       3.259194784489e-01       1.789781896159e+02 
       3.370745953058e-01       1.673318884791e+02 
       3.486833741310e-01       1.564514479046e+02 
       3.607818666094e-01       1.461359381104e+02 
       3.734121668831e-01       1.362652050790e+02 
       3.866238241514e-01       1.268738010678e+02 
       4.004756899469e-01       1.180162126392e+02 
       4.150383719565e-01       1.096466869603e+02 
       4.303975499401e-01       1.016766108904e+02 
       4.466585424835e-01       9.407733848078e+01 
       4.639527311662e-01       8.685272782425e+01 
       4.824468160922e-01       7.996709625350e+01 
       5.023565178754e-01       7.337257583893e+01 
       5.239675042585e-01       6.704593426605e+01 
       5.476685241176e-01       6.095414609551e+01 
       5.740061239863e-01       5.505335966311e+01 
       6.037795838036e-01       4.930193831627e+01 
       6.382155218620e-01       4.364486111687e+01 
       6.793117413565e-01       3.801407508586e+01 
       7.305688966713e-01       3.231931534246e+01 
       7.986710163531e-01       2.644276708831e+01 
       8.974421909014e-01       2.027530596803e+01 
       1.054704256414e+00       1.396412109478e+01 
       1.302735624060e+00       8.501254567718e+00 
       1.638078371208e+00       4.914217192951e+00 
       2.062186080218e+00       2.806423317157e+00 
       2.596138358146e+00       1.589188769084e+00 
       3.268344551560e+00       8.930787664336e-01 
       4.114602010457e+00       4.984301915817e-01 
       5.179977030384e+00       2.764336155685e-01 
       6.521204716061e+00       1.524363972883e-01 
       8.209710332561e+00       8.361978200266e-02 
       1.033541296113e+01       4.564971181556e-02 
