# Matter power spectrum P(k) at redshift z=1.5
# for k=2.12261e-07 to 10.6505 h/Mpc,
# number of wavenumbers equal to 139
#    1:k (h/Mpc)              2:P (Mpc/h)^3        
       2.122610239488e-07       2.065174617351e-01 
       2.672207969826e-07       2.581943760684e-01 
       3.364110518813e-07       3.228024170410e-01 
       4.235164220218e-07       4.035773435494e-01 
       5.331755859954e-07       5.045645990231e-01 
       6.712282941578e-07       6.308219189259e-01 
       8.450263566305e-07       7.886726366974e-01 
       1.063825153998e-06       9.860223740820e-01 
       1.339276520074e-06       1.232754976459e+00 
       1.686049244540e-06       1.541227523098e+00 
       2.122610239488e-06       1.926889200708e+00 
       2.672207969826e-06       2.409055035554e+00 
       3.364110518813e-06       3.011873229578e+00 
       4.235164220218e-06       3.765534539790e+00 
       5.331755859954e-06       4.707784252986e+00 
       6.712282941578e-06       5.885812449769e+00 
       8.450263566305e-06       7.358617164263e+00 
       1.063825153998e-05       9.199958664802e+00 
       1.339276520074e-05       1.150205257010e+01 
       1.686049244540e-05       1.438018627147e+01 
       2.122610239488e-05       1.797848888083e+01 
       2.672207969826e-05       2.247714176377e+01 
       3.364110518813e-05       2.810138693876e+01 
       4.235164220218e-05       3.513277695883e+01 
       5.331755859954e-05       4.392321469900e+01 
       6.712282941578e-05       5.491245664731e+01 
       8.450263566305e-05       6.864989787025e+01 
       1.063825153998e-04       8.582161482401e+01 
       1.339276520074e-04       1.072837950912e+02 
       1.686049244540e-04       1.341037894396e+02 
       2.122610239488e-04       1.676099958477e+02 
       2.672207969826e-04       2.094514673854e+02 
       3.364110518813e-04       2.616672567827e+02 
       4.235164220218e-04       3.267636895699e+02 
       5.331755859954e-04       4.077946438129e+02 
       6.712282941578e-04       5.084356513436e+02 
       8.450263566305e-04       6.330384911111e+02 
       1.063825153998e-03       7.866499005275e+02 
       1.339276520074e-03       9.749675369272e+02 
       1.686049244540e-03       1.204161453358e+03 
       2.122610239488e-03       1.480427823141e+03 
       2.672207969826e-03       1.809200431330e+03 
       3.364110518813e-03       2.193974168219e+03 
       4.235164220218e-03       2.634595637437e+03 
       5.331755859954e-03       3.120860550093e+03 
       6.712282941578e-03       3.644093672839e+03 
       8.450263566305e-03       4.174374705111e+03 
       1.063825153998e-02       4.669309478639e+03 
       1.339276520074e-02       5.069515349624e+03 
       1.686049244512e-02       5.301441117450e+03 
       2.122610140372e-02       5.291512161388e+03 
       2.672160162333e-02       5.000450487516e+03 
       3.359547988894e-02       4.477690393765e+03 
       4.127792304766e-02       3.930563341025e+03 
       4.720774970212e-02       3.597527603033e+03 
       5.164080378615e-02       3.394410736988e+03 
       5.538760687123e-02       3.243043155466e+03 
       5.877709139155e-02       3.114784835332e+03 
       6.196279932823e-02       2.996911855407e+03 
       6.502887024059e-02       2.882992665603e+03 
       6.802702930760e-02       2.769745612480e+03 
       7.099190083029e-02       2.655773382439e+03 
       7.394825697991e-02       2.540941916093e+03 
       7.691481174775e-02       2.425999542687e+03 
       7.990636579450e-02       2.312286614844e+03 
       8.293509488707e-02       2.201477135044e+03 
       8.601136262342e-02       2.095334719078e+03 
       8.914425397298e-02       1.995483047246e+03 
       9.234193727046e-02       1.903201276297e+03 
       9.561191659988e-02       1.819256471818e+03 
       9.896121173271e-02       1.743786436655e+03 
       1.023964887413e-01       1.676245187684e+03 
       1.059241561382e-01       1.615422898671e+03 
       1.095504363604e-01       1.559551529493e+03 
       1.132814192712e-01       1.506503175098e+03 
       1.171231023387e-01       1.454076794506e+03 
       1.210814208396e-01       1.400346416453e+03 
       1.251622705719e-01       1.344015706036e+03 
       1.293715249833e-01       1.284697163116e+03 
       1.337150482408e-01       1.223027306936e+03 
       1.381987055128e-01       1.160554799557e+03 
       1.428283715650e-01       1.099396230433e+03 
       1.476099386694e-01       1.041727568046e+03 
       1.525493247514e-01       9.892363090450e+02 
       1.576524826620e-01       9.426799210920e+02 
       1.629254114323e-01       9.016745828338e+02 
       1.683741703522e-01       8.647905839966e+02 
       1.740048967040e-01       8.299648839020e+02 
       1.798238279709e-01       7.951514377313e+02 
       1.858373293435e-01       7.590188601584e+02 
       1.920519273455e-01       7.214214961573e+02 
       1.984743504225e-01       6.834041840288e+02 
       2.051115773705e-01       6.466920199392e+02 
       2.119708945463e-01       6.128804010243e+02 
       2.190599629065e-01       5.827085269749e+02 
       2.263868960788e-01       5.557658119248e+02 
       2.339603508952e-01       5.307756917561e+02 
       2.417896321379e-01       5.063220686561e+02 
       2.498848136793e-01       4.816289296731e+02 
       2.582568787826e-01       4.569200150357e+02 
       2.669178831063e-01       4.331168860718e+02 
       2.758811449796e-01       4.110962209006e+02 
       2.851614688763e-01       3.910570799560e+02 
       2.947754098114e-01       3.724554474856e+02 
       3.047415887886e-01       3.545166731383e+02 
       3.150810726574e-01       3.368714751532e+02 
       3.258178361329e-01       3.197542043820e+02 
       3.369793297810e-01       3.036170018478e+02 
       3.485971862122e-01       2.885989404464e+02 
       3.607081086802e-01       2.744134878387e+02 
       3.733550034860e-01       2.607200080305e+02 
       3.865884427767e-01       2.474821440620e+02 
       4.004685819254e-01       2.348740074744e+02 
       4.150677129530e-01       2.229335904401e+02 
       4.304737247137e-01       2.114948220745e+02 
       4.467948831963e-01       2.004421245760e+02 
       4.641665796454e-01       1.898081263173e+02 
       4.827610913994e-01       1.795841486132e+02 
       5.028020974792e-01       1.696678789734e+02 
       5.245869637501e-01       1.600069274521e+02 
       5.485222426283e-01       1.505647132455e+02 
       5.751827143628e-01       1.412493176410e+02 
       6.054146879883e-01       1.319749316797e+02 
       6.405278757312e-01       1.226192230936e+02 
       6.826775950410e-01       1.130103315716e+02 
       7.356881738769e-01       1.028920713783e+02 
       8.069625295621e-01       9.187144241075e+01 
       9.119300291561e-01       7.940394862075e+01 
       1.080653381213e+00       6.521354930953e+01 
       1.341734862629e+00       5.095604734290e+01 
       1.687996721236e+00       3.910973000038e+01 
       2.125047094531e+00       2.964535761624e+01 
       2.675275753264e+00       2.204059567310e+01 
       3.367972629330e+00       1.597627248719e+01 
       4.240026329291e+00       1.124117622224e+01 
       5.337876892621e+00       7.659001552588e+00 
       6.719988865149e+00       5.054190994979e+00 
       8.459964749310e+00       3.239760755553e+00 
       1.065046460579e+01       2.026038936232e+00 
