# Matter power spectrum P(k) at redshift z=0
# for k=2.24252e-07 to 11.2533 h/Mpc,
# number of wavenumbers equal to 139
#    1:k (h/Mpc)              2:P (Mpc/h)^3        
       2.242517329970e-07       1.172598644858e+00 
       2.823162053088e-07       1.459349749107e+00 
       3.554150450246e-07       1.816223905021e+00 
       4.474410319154e-07       2.260369232380e+00 
       5.632948853578e-07       2.813127307710e+00 
       7.091462455106e-07       3.501058645445e+00 
       8.927622291517e-07       4.357218953260e+00 
       1.123921056969e-06       5.422747486007e+00 
       1.414932779469e-06       6.748843819262e+00 
       1.781294832054e-06       8.399228026227e+00 
       2.242517329970e-06       1.045320246773e+01 
       2.823162053088e-06       1.300946230830e+01 
       3.554150450246e-06       1.619083784384e+01 
       4.474410319154e-06       2.015019648107e+01 
       5.632948853578e-06       2.507778790495e+01 
       7.091462455106e-06       3.121038525917e+01 
       8.927622291517e-06       3.884266134412e+01 
       1.123921056969e-05       4.834134601360e+01 
       1.414932779469e-05       6.016284413287e+01 
       1.781294832054e-05       7.487515887073e+01 
       2.242517329970e-05       9.318517022282e+01 
       2.823162053088e-05       1.159725725747e+02 
       3.554150450246e-05       1.443320883145e+02 
       4.474410319154e-05       1.796259589182e+02 
       5.632948853578e-05       2.235491826527e+02 
       7.091462455106e-05       2.782105293836e+02 
       8.927622291517e-05       3.462330211948e+02 
       1.123921056969e-04       4.308783088391e+02 
       1.414932779469e-04       5.362001491229e+02 
       1.781294832054e-04       6.672328790503e+02 
       2.242517329970e-04       8.302211537746e+02 
       2.823162053088e-04       1.032896859352e+03 
       3.554150450246e-04       1.284807442796e+03 
       4.474410319154e-04       1.597696327826e+03 
       5.632948853578e-04       1.985930418163e+03 
       7.091462455106e-04       2.466961884873e+03 
       8.927622291517e-04       3.061796693717e+03 
       1.123921056969e-03       3.795399299220e+03 
       1.414932779469e-03       4.696870193735e+03 
       1.781294832054e-03       5.799110920130e+03 
       2.242517329970e-03       7.137859231912e+03 
       2.823162053088e-03       8.749314765998e+03 
       3.554150450246e-03       1.066585746949e+04 
       4.474410319154e-03       1.290919947906e+04 
       5.632948853578e-03       1.547941987745e+04 
       7.091462455106e-03       1.833883666084e+04 
       8.927622291517e-03       2.138983637036e+04 
       1.123921056969e-02       2.444608559182e+04 
       1.414932779469e-02       2.720237644138e+04 
       1.781294831988e-02       2.922141792456e+04 
       2.242517138587e-02       2.998475600449e+04 
       2.823083221098e-02       2.908660114414e+04 
       3.547538046896e-02       2.662490399753e+04 
       4.337273091147e-02       2.380178180118e+04 
       4.931958638819e-02       2.207306427336e+04 
       5.382148242865e-02       2.102341239573e+04 
       5.765694216322e-02       2.026334582415e+04 
       6.114158719585e-02       1.963843767599e+04 
       6.442517045369e-02       1.907338752350e+04 
       6.759073703294e-02       1.852544892540e+04 
       7.068978066864e-02       1.796889045230e+04 
       7.375699827245e-02       1.738891183067e+04 
       7.681734548916e-02       1.677891365792e+04 
       7.988975811952e-02       1.613900824433e+04 
       8.298926864322e-02       1.547490656719e+04 
       8.612828374812e-02       1.479679474054e+04 
       8.931739331990e-02       1.411803954547e+04 
       9.256590323513e-02       1.345369578036e+04 
       9.588219780737e-02       1.281887458746e+04 
       9.927399303922e-02       1.222708557549e+04 
       1.027485175005e-01       1.168868557957e+04 
       1.063126438082e-01       1.120956745026e+04 
       1.099729855068e-01       1.079021106633e+04 
       1.137359691544e-01       1.042521669216e+04 
       1.176078882990e-01       1.010345642498e+04 
       1.215949440202e-01       9.808995842935e+03 
       1.257032754058e-01       9.522922683805e+03 
       1.299389824725e-01       9.226088546642e+03 
       1.343081434606e-01       8.902517956232e+03 
       1.388168280543e-01       8.542876246798e+03 
       1.434711078238e-01       8.147075700991e+03 
       1.482770650196e-01       7.725040761845e+03 
       1.532408007419e-01       7.295009089296e+03 
       1.583684434419e-01       6.879470172621e+03 
       1.636661586660e-01       6.499656484439e+03 
       1.691401609317e-01       6.170021110756e+03 
       1.747967286037e-01       5.894168996096e+03 
       1.806422226286e-01       5.663392572405e+03 
       1.866831099790e-01       5.458554165009e+03 
       1.929259926554e-01       5.255509108239e+03 
       1.993776431011e-01       5.033178987829e+03 
       2.060450469021e-01       4.781703736938e+03 
       2.129354536865e-01       4.506863110325e+03 
       2.200564372059e-01       4.227795287717e+03 
       2.274159656937e-01       3.968311700238e+03 
       2.350224837645e-01       3.745785789830e+03 
       2.428850073597e-01       3.563010695733e+03 
       2.510132335858e-01       3.407022875095e+03 
       2.594176677513e-01       3.256010579085e+03 
       2.681097705279e-01       3.091686380310e+03 
       2.771021289876e-01       2.910330354043e+03 
       2.864086563526e-01       2.724557916681e+03 
       2.960448267394e-01       2.553554160904e+03 
       3.060279530865e-01       2.408695875468e+03 
       3.163775190096e-01       2.285453732103e+03 
       3.271155787617e-01       2.167927148719e+03 
       3.382672441558e-01       2.042917106004e+03 
       3.498612837541e-01       1.911496045543e+03 
       3.619308686345e-01       1.786349644134e+03 
       3.745145118193e-01       1.677195234181e+03 
       3.876572668600e-01       1.580290838600e+03 
       4.014122780781e-01       1.484105842405e+03 
       4.158428153279e-01       1.384362413062e+03 
       4.310249877771e-01       1.288398344850e+03 
       4.470514274370e-01       1.202406608600e+03 
       4.640363873301e-01       1.121639245681e+03 
       4.821229531297e-01       1.039870519219e+03 
       5.014934987854e-01       9.604132479936e+02 
       5.223852768457e-01       8.868752204425e+02 
       5.451144273467e-01       8.148159980169e+02 
       5.701143605158e-01       7.434942336283e+02 
       5.979998614502e-01       6.752798015364e+02 
       6.296798066538e-01       6.071820466814e+02 
       6.665677508207e-01       5.398681229625e+02 
       7.110042335270e-01       4.716652145088e+02 
       7.671731144099e-01       4.017289961419e+02 
       8.432373712439e-01       3.282134243651e+02 
       9.562662188401e-01       2.498002235487e+02 
       1.138703891415e+00       1.697673099368e+02 
       1.417399687255e+00       1.034622705252e+02 
       1.783543073093e+00       6.080082632318e+01 
       2.245338037818e+00       3.530235733978e+01 
       2.826713094491e+00       2.029623966856e+01 
       3.558620946502e+00       1.156570139556e+01 
       4.480038340494e+00       6.537990920481e+00 
       5.640034112660e+00       3.669095352499e+00 
       7.100382267814e+00       2.045515628296e+00 
       8.938851670403e+00       1.133516270224e+00 
       1.125334752013e+01       6.246757708772e-01 
