# Matter power spectrum P(k) at redshift z=2
# for k=2.26633e-07 to 11.3717 h/Mpc,
# number of wavenumbers equal to 139
#    1:k (h/Mpc)              2:P (Mpc/h)^3        
       2.266330928417e-07       2.169462159621e-01 
       2.853141597319e-07       2.694772329115e-01 
       3.591892460312e-07       3.347280279019e-01 
       4.521924694719e-07       4.157785481053e-01 
       5.692765908401e-07       5.164545140063e-01 
       7.166767665481e-07       6.415079999425e-01 
       9.022425934499e-07       7.968417396360e-01 
       1.135856128497e-06       9.897877449382e-01 
       1.429958144307e-06       1.229453387927e+00 
       1.800210645670e-06       1.527151283069e+00 
       2.266330928417e-06       1.896933257847e+00 
       2.853141597319e-06       2.356253616696e+00 
       3.591892460312e-06       2.926793000388e+00 
       4.521924694719e-06       3.635481724927e+00 
       5.692765908401e-06       4.515770888374e+00 
       7.166767665481e-06       5.609211223245e+00 
       9.022425934499e-06       6.967414173629e+00 
       1.135856128497e-05       8.654487670956e+00 
       1.429958144307e-05       1.075006140431e+01 
       1.800210645670e-05       1.335304404557e+01 
       2.266330928417e-05       1.658628907279e+01 
       2.853141597319e-05       2.060238809783e+01 
       3.591892460312e-05       2.559086249983e+01 
       4.521924694719e-05       3.178708760944e+01 
       5.692765908401e-05       3.948336042307e+01 
       7.166767665481e-05       4.904261319703e+01 
       9.022425934499e-05       6.091538066385e+01 
       1.135856128497e-04       7.566074461638e+01 
       1.429958144307e-04       9.397209363704e+01 
       1.800210645670e-04       1.167086214333e+02 
       2.266330928417e-04       1.449334874537e+02 
       2.853141597319e-04       1.799593718531e+02 
       3.591892460312e-04       2.234015870513e+02 
       4.521924694719e-04       2.772376805257e+02 
       5.692765908401e-04       3.438702635276e+02 
       7.166767665481e-04       4.261865536909e+02 
       9.022425934499e-04       5.276045456706e+02 
       1.135856128497e-03       6.520932534565e+02 
       1.429958144307e-03       8.041506164754e+02 
       1.800210645670e-03       9.886995922121e+02 
       2.266330928417e-03       1.210805440363e+03 
       2.853141597319e-03       1.475110023391e+03 
       3.591892460312e-03       1.784982542600e+03 
       4.521924694719e-03       2.141249604305e+03 
       5.692765908401e-03       2.536865159995e+03 
       7.166767665481e-03       2.966866518131e+03 
       9.022425934499e-03       3.408701364865e+03 
       1.135856128497e-02       3.829168982283e+03 
       1.429958144307e-02       4.179513160066e+03 
       1.800210645637e-02       4.396360904146e+03 
       2.266330815007e-02       4.412445304610e+03 
       2.853087874237e-02       4.186211896717e+03 
       3.586840403785e-02       3.752848463502e+03 
       4.404716949713e-02       3.292663324701e+03 
       5.034100580521e-02       3.016315448677e+03 
       5.505280229049e-02       2.851960276642e+03 
       5.903889661679e-02       2.732757721785e+03 
       6.264665182741e-02       2.633788577277e+03 
       6.603851595975e-02       2.543654399320e+03 
       6.930363083675e-02       2.456329351248e+03 
       7.249685097016e-02       2.368510428405e+03 
       7.565492308153e-02       2.278571236569e+03 
       7.880415372824e-02       2.186067576016e+03 
       8.196442604026e-02       2.091444804734e+03 
       8.515147208072e-02       1.995813597251e+03 
       8.837823862906e-02       1.900740266550e+03 
       9.165574907831e-02       1.808032062322e+03 
       9.499366946374e-02       1.719518859063e+03 
       9.840069261546e-02       1.636841146739e+03 
       1.018848060585e-01       1.561258079515e+03 
       1.054534830522e-01       1.493490842077e+03 
       1.091138212838e-01       1.433614043313e+03 
       1.128726449680e-01       1.381007385273e+03 
       1.167365807692e-01       1.334382135392e+03 
       1.207121146273e-01       1.291888758724e+03 
       1.248056344339e-01       1.251329139922e+03 
       1.290234621136e-01       1.210458880372e+03 
       1.333718777486e-01       1.167360599092e+03 
       1.378571377727e-01       1.120822882474e+03 
       1.424854888579e-01       1.070631201388e+03 
       1.472631788424e-01       1.017669753586e+03 
       1.521964658752e-01       9.637656828832e+02 
       1.572916268388e-01       9.112804800494e+02 
       1.625549660350e-01       8.625361595264e+02 
       1.679928250786e-01       8.192244751302e+02 
       1.736115949128e-01       7.819562717760e+02 
       1.794177308409e-01       7.500757263779e+02 
       1.854177714604e-01       7.218125074905e+02 
       1.916183623736e-01       6.947827848303e+02 
       1.980262855497e-01       6.667524320402e+02 
       2.046484952148e-01       6.364354903595e+02 
       2.114921611686e-01       6.039904806540e+02 
       2.185647204608e-01       5.709280500734e+02 
       2.258739384350e-01       5.394064407091e+02 
       2.334279802526e-01       5.112265925475e+02 
       2.412354941833e-01       4.870113950234e+02 
       2.493057081880e-01       4.659631211723e+02 
       2.576485416617e-01       4.463305782834e+02 
       2.662747346668e-01       4.263895333285e+02 
       2.751959976113e-01       4.054192396610e+02 
       2.844251851535e-01       3.840455050104e+02 
       2.939764992150e-01       3.636747741397e+02 
       3.038657274281e-01       3.454171625154e+02 
       3.141105252731e-01       3.293033814076e+02 
       3.247307527205e-01       3.143716550801e+02 
       3.357488796505e-01       2.995350960952e+02 
       3.471904790163e-01       2.844921869789e+02 
       3.590848331830e-01       2.698453383623e+02 
       3.714656878962e-01       2.563333895236e+02 
       3.843722011147e-01       2.440188401859e+02 
       3.978501523346e-01       2.323095177411e+02 
       4.119535049738e-01       2.207274605780e+02 
       4.267464545996e-01       2.094276538680e+02 
       4.423061570636e-01       1.988027902342e+02 
       4.587264261271e-01       1.888234099176e+02 
       4.761228428473e-01       1.791381792578e+02 
       4.946399699215e-01       1.696719021289e+02 
       5.144617896412e-01       1.606042768152e+02 
       5.358272311022e-01       1.518728130516e+02 
       5.590540167389e-01       1.433000040594e+02 
       5.845766645844e-01       1.349145546187e+02 
       6.130097215843e-01       1.266577494325e+02 
       6.452584608070e-01       1.184065219405e+02 
       6.827246289877e-01       1.100857729292e+02 
       7.277165942750e-01       1.015206845712e+02 
       7.843336748422e-01       9.248694907047e+01 
       8.605182229822e-01       8.262634563149e+01 
       9.728308551698e-01       7.144148635279e+01 
       1.153455577114e+00       5.867191142197e+01 
       1.432562675093e+00       4.580908120357e+01 
       1.802310951330e+00       3.508164349833e+01 
       2.268960019086e+00       2.648266395841e+01 
       2.856451391349e+00       1.957092272263e+01 
       3.596059244113e+00       1.407700353624e+01 
       4.527170364731e+00       9.815928964445e+00 
       5.699369815682e+00       6.623931599844e+00 
       7.175081492174e+00       4.330699887839e+00 
       9.032892422192e+00       2.753221355243e+00 
       1.137173781230e+01       1.710009549892e+00 
