# Matter power spectrum P(k) at redshift z=1
# for k=1.93003e-07 to 12.1945 h/Mpc,
# number of wavenumbers equal to 140
#    1:k (h/Mpc)              2:P (Mpc/h)^3        
       1.930030672362e-07       4.810473041569e-01 
       2.429764658979e-07       6.002577621018e-01 
       3.058892473868e-07       7.490102898667e-01 
       3.850917467298e-07       9.346258379602e-01 
       4.848017858304e-07       1.166239593351e+00 
       6.103292878650e-07       1.455250572930e+00 
       7.683590500555e-07       1.815882632417e+00 
       9.673067334969e-07       2.265884500126e+00 
       1.217767027799e-06       2.827403286978e+00 
       1.533077856941e-06       3.528074462482e+00 
       1.930030672362e-06       4.402381932604e+00 
       2.429764658979e-06       5.493355151493e+00 
       3.058892473868e-06       6.854686771495e+00 
       3.850917467298e-06       8.553375021035e+00 
       4.848017858304e-06       1.067302078273e+01 
       6.103292878650e-06       1.331794151119e+01 
       7.683590500555e-06       1.661830418436e+01 
       9.673067334969e-06       2.073652938801e+01 
       1.217767027799e-05       2.587528065248e+01 
       1.533077856941e-05       3.228743018730e+01 
       1.930030672362e-05       4.028848736854e+01 
       2.429764658979e-05       5.027209356287e+01 
       3.058892473868e-05       6.272932987234e+01 
       3.850917467298e-05       7.827275642723e+01 
       4.848017858304e-05       9.766630401303e+01 
       6.103292878650e-05       1.218623662240e+02 
       7.683590500555e-05       1.520476762580e+02 
       9.673067334969e-05       1.896997528482e+02 
       1.217767027799e-04       2.366557714576e+02 
       1.533077856941e-04       2.951954696183e+02 
       1.930030672362e-04       3.681387755637e+02 
       2.429764658979e-04       4.589566509555e+02 
       3.058892473868e-04       5.718892646897e+02 
       3.850917467298e-04       7.120581237815e+02 
       4.848017858304e-04       8.855482215888e+02 
       6.103292878650e-04       1.099425826129e+03 
       7.683590500555e-04       1.361654030348e+03 
       9.673067334969e-04       1.680867460798e+03 
       1.217767027799e-03       2.065914967544e+03 
       1.533077856941e-03       2.524921363226e+03 
       1.930030672362e-03       3.063637963275e+03 
       2.429764658979e-03       3.683207221709e+03 
       3.058892473868e-03       4.377320091228e+03 
       3.850917467298e-03       5.129064853469e+03 
       4.848017858304e-03       5.907567603071e+03 
       6.103292878650e-03       6.665384012098e+03 
       7.683590500555e-03       7.337378756686e+03 
       9.673067334969e-03       7.841506586685e+03 
       1.217767027799e-02       8.082940708973e+03 
       1.533077856941e-02       7.964894953210e+03 
       1.930030671383e-02       7.414190862678e+03 
       2.429763167962e-02       6.432331102314e+03 
       3.058529218537e-02       5.165782616859e+03 
       3.831188776767e-02       3.946626353224e+03 
       4.586554510682e-02       3.198299345167e+03 
       5.128692003682e-02       2.865811935376e+03 
       5.557066234384e-02       2.675193699871e+03 
       5.930980003403e-02       2.534985029933e+03 
       6.275250323775e-02       2.412942983478e+03 
       6.602300351918e-02       2.295112902130e+03 
       6.919289007208e-02       2.175244445202e+03 
       7.230781696469e-02       2.051194906007e+03 
       7.539922060891e-02       1.923349843509e+03 
       7.849011209890e-02       1.793716232392e+03 
       8.159821062657e-02       1.665258346732e+03 
       8.473776122816e-02       1.541338054999e+03 
       8.792064952062e-02       1.425228887366e+03 
       9.115711679244e-02       1.319714379299e+03 
       9.445623600181e-02       1.226788400255e+03 
       9.782623845321e-02       1.147465861100e+03 
       1.012747437178e-01       1.081697427033e+03 
       1.048089248148e-01       1.028373445574e+03 
       1.084356288361e-01       9.854052092043e+02 
       1.121614661308e-01       9.498897479710e+02 
       1.159928768191e-01       9.183808721280e+02 
       1.199361806587e-01       8.872913430377e+02 
       1.239976145155e-01       8.534186116257e+02 
       1.281833605352e-01       8.145212097331e+02 
       1.324995673387e-01       7.698017387992e+02 
       1.369523660570e-01       7.201202158619e+02 
       1.415478826802e-01       6.678100758746e+02 
       1.462922479678e-01       6.160977572450e+02 
       1.511916060247e-01       5.682793509777e+02 
       1.562521225495e-01       5.268994231189e+02 
       1.614799937057e-01       4.931568342088e+02 
       1.668814565263e-01       4.666610331288e+02 
       1.724628017418e-01       4.455668615838e+02 
       1.782303899048e-01       4.270757883835e+02 
       1.841906716752e-01       4.082537947508e+02 
       1.903502131222e-01       3.869906653816e+02 
       1.967157269023e-01       3.627438523551e+02 
       2.032941101773e-01       3.366684595149e+02 
       2.100924901668e-01       3.109935185504e+02 
       2.171182782714e-01       2.879372280825e+02 
       2.243792337920e-01       2.687154467094e+02 
       2.318835383934e-01       2.530990574357e+02 
       2.396398826554e-01       2.396709753290e+02 
       2.476575663267e-01       2.266415791419e+02 
       2.559466142704e-01       2.128284740267e+02 
       2.645179106064e-01       1.982382162194e+02 
       2.733833542335e-01       1.838572556769e+02 
       2.825560398255e-01       1.708178698828e+02 
       2.920504695899e-01       1.595817666579e+02 
       3.018828026660e-01       1.497205332800e+02 
       3.120711511451e-01       1.403819536874e+02 
       3.226359345175e-01       1.310174879667e+02 
       3.336003081577e-01       1.217440510602e+02 
       3.449906866701e-01       1.130515612426e+02 
       3.568373901155e-01       1.052188109774e+02 
       3.691754512519e-01       9.806320104860e+01 
       3.820456363283e-01       9.122745559274e+01 
       3.954957528402e-01       8.459450648800e+01 
       4.095823484514e-01       7.831906797338e+01 
       4.243729516021e-01       7.251113438556e+01 
       4.399490755154e-01       6.706954396217e+01 
       4.564103193328e-01       6.186719024401e+01 
       4.738800810395e-01       5.691852671833e+01 
       4.925136976815e-01       5.226100910808e+01 
       5.125103451517e-01       4.784025459500e+01 
       5.341309506404e-01       4.361120586771e+01 
       5.577260810566e-01       3.957582871472e+01 
       5.837811002054e-01       3.570254737042e+01 
       6.129927259288e-01       3.195793599394e+01 
       6.464060412683e-01       2.831564257018e+01 
       6.856758404326e-01       2.473302378636e+01 
       7.336033209938e-01       2.116259746334e+01 
       7.953293085671e-01       1.754204005615e+01 
       8.811512723807e-01       1.380080176639e+01 
       1.012641264019e+00       9.932196209089e+00 
       1.225831321521e+00       6.285774679824e+00 
       1.535404177633e+00       3.637347495227e+00 
       1.932703170422e+00       2.063201083594e+00 
       2.433127381938e+00       1.161400049949e+00 
       3.063125889328e+00       6.494452835459e-01 
       3.856247021599e+00       3.609764181902e-01 
       4.854727369647e+00       1.995337107112e-01 
       6.111739652981e+00       1.097371342764e-01 
       7.694224359408e+00       6.007116790082e-02 
       9.686454570104e+00       3.274216664114e-02 
       1.219452380849e+01       1.777502547851e-02 
