# Matter power spectrum P(k) at redshift z=2.5
# for k=2.05299e-07 to 10.3021 h/Mpc,
# number of wavenumbers equal to 139
#    1:k (h/Mpc)              2:P (Mpc/h)^3        
       2.052988228862e-07       1.848116749968e-01 
       2.584559051428e-07       2.301968640557e-01 
       3.253767068126e-07       2.867275359988e-01 
       4.096250046123e-07       3.571407466000e-01 
       5.156873276127e-07       4.448457048068e-01 
       6.492118812718e-07       5.540888370300e-01 
       8.173093349718e-07       6.901593869772e-01 
       1.028931491093e-06       8.596455057066e-01 
       1.295348001132e-06       1.070753230556e+00 
       1.630746515742e-06       1.333703797161e+00 
       2.052988228862e-06       1.661228520539e+00 
       2.584559051428e-06       2.069185204032e+00 
       3.253767068126e-06       2.577325920371e+00 
       4.096250046123e-06       3.210253332842e+00 
       5.156873276127e-06       3.998611848235e+00 
       6.492118812718e-06       4.980571259451e+00 
       8.173093349718e-06       6.203674672728e+00 
       1.028931491093e-05       7.727140125585e+00 
       1.295348001132e-05       9.624727185624e+00 
       1.630746515742e-05       1.198830705971e+01 
       2.052988228862e-05       1.493230852742e+01 
       2.584559051428e-05       1.859925388679e+01 
       3.253767068126e-05       2.316665086085e+01 
       4.096250046123e-05       2.885556999711e+01 
       5.156873276127e-05       3.594131472070e+01 
       6.492118812718e-05       4.476668452690e+01 
       8.173093349718e-05       5.575844188465e+01 
       1.028931491093e-04       6.944771797317e+01 
       1.295348001132e-04       8.649522350107e+01 
       1.630746515742e-04       1.077222480049e+02 
       2.052988228862e-04       1.341484894293e+02 
       2.584559051428e-04       1.670376678138e+02 
       3.253767068126e-04       2.079514841919e+02 
       4.096250046123e-04       2.588115376651e+02 
       5.156873276127e-04       3.219669918326e+02 
       6.492118812718e-04       4.002628987925e+02 
       8.173093349718e-04       4.971005557225e+02 
       1.028931491093e-03       6.164783616425e+02 
       1.295348001132e-03       7.629985195546e+02 
       1.630746515742e-03       9.418033247312e+02 
       2.052988228862e-03       1.158371908872e+03 
       2.584559051428e-03       1.418043796694e+03 
       3.253767068126e-03       1.725227288082e+03 
       4.096250046123e-03       2.080430830169e+03 
       5.156873276127e-03       2.484577308975e+03 
       6.492118812718e-03       2.927990123407e+03 
       8.173093349718e-03       3.391943031007e+03 
       1.028931491093e-02       3.843123749972e+03 
       1.295348001132e-02       4.229453759625e+03 
       1.630746515688e-02       4.479409035239e+03 
       2.052988070070e-02       4.512878512309e+03 
       2.584491932325e-02       4.275975276980e+03 
       3.248016785503e-02       3.805443925584e+03 
       3.974469144438e-02       3.315546294451e+03 
       4.523564060676e-02       3.033093853327e+03 
       4.938374091562e-02       2.869708592324e+03 
       5.291324587099e-02       2.755519846286e+03 
       5.611769394132e-02       2.663857331282e+03 
       5.913598885886e-02       2.582013803759e+03 
       6.204501030766e-02       2.502907922724e+03 
       6.489236215236e-02       2.422359180374e+03 
       6.771008580398e-02       2.338029619609e+03 
       7.052120701991e-02       2.248948443520e+03 
       7.334318463934e-02       2.155246931127e+03 
       7.618987009294e-02       2.057957254184e+03 
       7.907268923208e-02       1.958809901030e+03 
       8.200139023984e-02       1.860006837777e+03 
       8.498453593987e-02       1.763967213123e+03 
       8.802983855676e-02       1.673060804220e+03 
       9.114439353954e-02       1.589347321056e+03 
       9.433484651501e-02       1.514344082223e+03 
       9.760751461825e-02       1.448840785067e+03 
       1.009684758781e-01       1.392775080772e+03 
       1.044236357200e-01       1.345182600448e+03 
       1.079787767573e-01       1.304238085015e+03 
       1.116395961887e-01       1.267409438980e+03 
       1.154117339120e-01       1.231745829516e+03 
       1.193007936659e-01       1.194303200344e+03 
       1.233123589823e-01       1.152668815019e+03 
       1.274520053759e-01       1.105486381283e+03 
       1.317253099661e-01       1.052835737550e+03 
       1.361378595702e-01       9.963151361648e+02 
       1.406952582099e-01       9.387399059751e+02 
       1.454031349093e-01       8.834913126618e+02 
       1.502671526235e-01       8.336768355544e+02 
       1.552930191125e-01       7.913284138196e+02 
       1.604865005597e-01       7.568484245673e+02 
       1.658534387235e-01       7.288475065767e+02 
       1.713997724029e-01       7.044583500694e+02 
       1.771315639972e-01       6.801451029261e+02 
       1.830550319448e-01       6.528801112073e+02 
       1.891765898417e-01       6.213118253313e+02 
       1.955028930793e-01       5.863619702804e+02 
       2.020408939026e-01       5.508321136623e+02 
       2.087979058929e-01       5.181064220527e+02 
       2.157816790323e-01       4.905716108485e+02 
       2.230004867317e-01       4.685251062602e+02 
       2.304632265095e-01       4.500824936143e+02 
       2.381795364340e-01       4.321861543191e+02 
       2.461599300077e-01       4.123317057852e+02 
       2.544159529249e-01       3.900679170566e+02 
       2.629603661313e-01       3.671771116056e+02 
       2.718073609307e-01       3.462754438005e+02 
       2.809728136344e-01       3.288549978267e+02 
       2.904745895800e-01       3.142518719634e+02 
       3.003329094909e-01       3.003180504501e+02 
       3.105707954235e-01       2.853178578513e+02 
       3.212146194452e-01       2.694310263297e+02 
       3.322947864149e-01       2.543400426422e+02 
       3.438465939129e-01       2.412910246208e+02 
       3.559113291838e-01       2.297695130926e+02 
       3.685376876174e-01       2.182861975394e+02 
       3.817836341534e-01       2.063111462005e+02 
       3.957188852396e-01       1.947857635450e+02 
       4.104282767844e-01       1.844782026784e+02 
       4.260164241422e-01       1.747827381015e+02 
       4.426143116735e-01       1.649296488109e+02 
       4.603888427779e-01       1.553276216670e+02 
       4.795570736014e-01       1.464076254257e+02 
       5.004081215781e-01       1.376269919736e+02 
       5.233381695462e-01       1.288897532169e+02 
       5.489088869892e-01       1.204636305874e+02 
       5.779500689449e-01       1.119829107220e+02 
       6.117512096072e-01       1.034953053447e+02 
       6.524452525667e-01       9.476771556540e+01 
       7.038402847676e-01       8.562516326399e+01 
       7.733565108668e-01       7.571465669355e+01 
       8.765026787879e-01       6.461078253204e+01 
       1.042887585506e+00       5.225051505878e+01 
       1.297620585377e+00       4.035264549987e+01 
       1.632775767629e+00       3.083815416207e+01 
       2.055533314409e+00       2.341208665615e+01 
       2.587763104508e+00       1.752290581458e+01 
       3.257800731963e+00       1.284204646960e+01 
       4.101328128030e+00       9.167850010082e+00 
       5.163266202483e+00       6.352427507294e+00 
       6.500167030164e+00       4.264940910233e+00 
       8.183225455180e+00       2.776881364785e+00 
       1.030207047597e+01       1.759057692405e+00 
