# Matter power spectrum P(k) at redshift z=1
# for k=2.07434e-07 to 10.4102 h/Mpc,
# number of wavenumbers equal to 139
#    1:k (h/Mpc)              2:P (Mpc/h)^3        
       2.074339284640e-07       5.018981419932e-01 
       2.611438438116e-07       6.269683064258e-01 
       3.287606211081e-07       7.832052445883e-01 
       4.138851003102e-07       9.783755387525e-01 
       5.210504703435e-07       1.222181159285e+00 
       6.559636779427e-07       1.526741751145e+00 
       8.258093433760e-07       1.907197103959e+00 
       1.039632367673e-06       2.382459753079e+00 
       1.308819606587e-06       2.976155122644e+00 
       1.647706262187e-06       3.717795943906e+00 
       2.074339284640e-06       4.644249322581e+00 
       2.611438438116e-06       5.801569379187e+00 
       3.287606211081e-06       7.247286543604e+00 
       4.138851003102e-06       9.053267272240e+00 
       5.210504703434e-06       1.130928627837e+01 
       6.559636779427e-06       1.412748872375e+01 
       8.258093433760e-06       1.764796392494e+01 
       1.039632367673e-05       2.204570712623e+01 
       1.308819606587e-05       2.753931440891e+01 
       1.647706262187e-05       3.440184091738e+01 
       2.074339284640e-05       4.297435819826e+01 
       2.611438438116e-05       5.368287668178e+01 
       3.287606211081e-05       6.705945888763e+01 
       4.138851003102e-05       8.376854201549e+01 
       5.210504703435e-05       1.046397173433e+02 
       6.559636779427e-05       1.307084755322e+02 
       8.258093433760e-05       1.632667061619e+02 
       1.039632367673e-04       2.039249966637e+02 
       1.308819606587e-04       2.546889196493e+02 
       1.647706262187e-04       3.180513434390e+02 
       2.074339284640e-04       3.971019985951e+02 
       2.611438438116e-04       4.956534733030e+02 
       3.287606211081e-04       6.183785709584e+02 
       4.138851003102e-04       7.709465062300e+02 
       5.210504703435e-04       9.601345406600e+02 
       6.559636779427e-04       1.193880096480e+03 
       8.258093433760e-04       1.481232522847e+03 
       1.039632367673e-03       1.832160258627e+03 
       1.308819606587e-03       2.257116242457e+03 
       1.647706262187e-03       2.766103699543e+03 
       2.074339284640e-03       3.366983255437e+03 
       2.611438438116e-03       4.063123402949e+03 
       3.287606211081e-03       4.850310503785e+03 
       4.138851003102e-03       5.713134039215e+03 
       5.210504703435e-03       6.621235846963e+03 
       6.559636779427e-03       7.526308610253e+03 
       8.258093433760e-03       8.360907381739e+03 
       1.039632367673e-02       9.039892460609e+03 
       1.308819606587e-02       9.465857461080e+03 
       1.647706262187e-02       9.540797666838e+03 
       2.074339282961e-02       9.188905314974e+03 
       2.611436162263e-02       8.396398725127e+03 
       3.287101951601e-02       7.262659941758e+03 
       4.113571616261e-02       6.041428781503e+03 
       4.902796019060e-02       5.154765778395e+03 
       5.467822775683e-02       4.657707817034e+03 
       5.917646906966e-02       4.316293153154e+03 
       6.311864372334e-02       4.042590325897e+03 
       6.675647381674e-02       3.804195958593e+03 
       7.021716798665e-02       3.586880636303e+03 
       7.357452677091e-02       3.383960420066e+03 
       7.687584929691e-02       3.192442867225e+03 
       8.015383140470e-02       3.011299164106e+03 
       8.343248199269e-02       2.840537616908e+03 
       8.673033797122e-02       2.680629124407e+03 
       9.006233593338e-02       2.532115914391e+03 
       9.344096323673e-02       2.395336087318e+03 
       9.687699813108e-02       2.270238165090e+03 
       1.003800033701e-01       2.156276272510e+03 
       1.039586655149e-01       2.052383594682e+03 
       1.076210340529e-01       1.957023239574e+03 
       1.113746933690e-01       1.868314724003e+03 
       1.152268884307e-01       1.784228731162e+03 
       1.191846177707e-01       1.702831922173e+03 
       1.232547028594e-01       1.622549325774e+03 
       1.274438401258e-01       1.542396552142e+03 
       1.317586400495e-01       1.462125922185e+03 
       1.362056565516e-01       1.382237906820e+03 
       1.407914091097e-01       1.303834572977e+03 
       1.455223994998e-01       1.228333355711e+03 
       1.504051247091e-01       1.157101295971e+03 
       1.554460873352e-01       1.091099737394e+03 
       1.606518046322e-01       1.030633111505e+03 
       1.660288172709e-01       9.752737283793e+02 
       1.715836988138e-01       9.239918708731e+02 
       1.773230668728e-01       8.754655847116e+02 
       1.832535968908e-01       8.284846618030e+02 
       1.893820394717e-01       7.823155955149e+02 
       1.957152421760e-01       7.368869703983e+02 
       2.022601766893e-01       6.927124257384e+02 
       2.090239722750e-01       6.505801905648e+02 
       2.160139564291e-01       6.111509729096e+02 
       2.232377036867e-01       5.746528614155e+02 
       2.307030935793e-01       5.408121610097e+02 
       2.384183788336e-01       5.090378072068e+02 
       2.463922650422e-01       4.787445370320e+02 
       2.546340032441e-01       4.496258612025e+02 
       2.631534971453e-01       4.217228031458e+02 
       2.719614271206e-01       3.952701033613e+02 
       2.810693936847e-01       3.704507892297e+02 
       2.904900838612e-01       3.472403325945e+02 
       3.002374648518e-01       3.254344554212e+02 
       3.103270107016e-01       3.048038914402e+02 
       3.207759693657e-01       2.852286848587e+02 
       3.316036798516e-01       2.667063549103e+02 
       3.428319521597e-01       2.492578790184e+02 
       3.544855268505e-01       2.328442014469e+02 
       3.665926366972e-01       2.173705852893e+02 
       3.791857006636e-01       2.027482917909e+02 
       3.923021913893e-01       1.889297436372e+02 
       4.059857329625e-01       1.758860486709e+02 
       4.202875083899e-01       1.635733506240e+02 
       4.352680895840e-01       1.519343389242e+02 
       4.509998530198e-01       1.409197836782e+02 
       4.675702216536e-01       1.304918491184e+02 
       4.850860957416e-01       1.206112342056e+02 
       5.036800326219e-01       1.112343359246e+02 
       5.235190643814e-01       1.023195841122e+02 
       5.448176083573e-01       9.382665610682e+01 
       5.678569362682e-01       8.571280895004e+01 
       5.930155499962e-01       7.793220522093e+01 
       6.208184870313e-01       7.043684234730e+01 
       6.520211516028e-01       6.317154110887e+01 
       6.877598547239e-01       5.607344924095e+01 
       7.298401131093e-01       4.906501166563e+01 
       7.813313691604e-01       4.204947285157e+01 
       8.478951019422e-01       3.489953032759e+01 
       9.409245730715e-01       2.746765136633e+01 
       1.084245343296e+00       1.974817068158e+01 
       1.316350594940e+00       1.249469528497e+01 
       1.650075137311e+00       7.268157142350e+00 
       2.077108522216e+00       4.149627649892e+00 
       2.614923377777e+00       2.350032459374e+00 
       3.291993488883e+00       1.321445906079e+00 
       4.144374258616e+00       7.382760386737e-01 
       5.217458070157e+00       4.100447028710e-01 
       6.568390549492e+00       2.265202461881e-01 
       8.269113777344e+00       1.245205188773e-01 
       1.041019746732e+01       6.814039550899e-02 
