# Matter power spectrum P(k) at redshift z=2
# for k=2.23154e-07 to 11.1956 h/Mpc,
# number of wavenumbers equal to 139
#    1:k (h/Mpc)              2:P (Mpc/h)^3        
       2.231541636368e-07       1.440339724208e-01 
       2.809344473501e-07       1.797524996113e-01 
       3.536755148174e-07       2.243287507454e-01 
       4.452510931330e-07       2.799593246685e-01 
       5.605379157742e-07       3.493855474820e-01 
       7.056754264423e-07       4.360285580315e-01 
       8.883927268269e-07       5.441578921130e-01 
       1.118420179455e-06       6.791018733549e-01 
       1.408007584980e-06       8.475101779395e-01 
       1.772576528730e-06       1.057681511895e+00 
       2.231541636368e-06       1.319972544918e+00 
       2.809344473501e-06       1.647308253678e+00 
       3.536755148174e-06       2.055818817232e+00 
       4.452510931330e-06       2.565634444403e+00 
       5.605379157742e-06       3.201877286203e+00 
       7.056754264423e-06       3.995899290737e+00 
       8.883927268269e-06       4.986826947210e+00 
       1.118420179455e-05       6.223488949886e+00 
       1.408007584980e-05       7.766821582895e+00 
       1.772576528730e-05       9.692869983327e+00 
       2.231541636368e-05       1.209653246371e+01 
       2.809344473501e-05       1.509623093215e+01 
       3.536755148174e-05       1.883973473207e+01 
       4.452510931330e-05       2.351141922699e+01 
       5.605379157742e-05       2.934130570524e+01 
       7.056754264423e-05       3.661630602555e+01 
       8.883927268269e-05       4.569418294867e+01 
       1.118420179455e-04       5.702082881838e+01 
       1.408007584980e-04       7.115154739354e+01 
       1.772576528730e-04       8.877706260660e+01 
       2.231541636368e-04       1.107549086156e+02 
       2.809344473501e-04       1.381465538262e+02 
       3.536755148174e-04       1.722598661406e+02 
       4.452510931330e-04       2.146950267521e+02 
       5.605379157742e-04       2.673894210099e+02 
       7.056754264423e-04       3.326534045290e+02 
       8.883927268269e-04       4.131852659652e+02 
       1.118420179455e-03       5.120523625086e+02 
       1.408007584980e-03       6.326240060715e+02 
       1.772576528730e-03       7.784197821441e+02 
       2.231541636368e-03       9.527786086252e+02 
       2.809344473501e-03       1.158267867724e+03 
       3.536755148174e-03       1.395877363454e+03 
       4.452510931330e-03       1.663939399289e+03 
       5.605379157742e-03       1.956761657484e+03 
       7.056754264423e-03       2.263101060613e+03 
       8.883927268269e-03       2.564704819026e+03 
       1.118420179455e-02       2.835167190120e+03 
       1.408007584980e-02       3.039823762358e+03 
       1.772576528727e-02       3.138184479467e+03 
       2.231541615855e-02       3.092059011783e+03 
       2.809329417544e-02       2.883528404201e+03 
       3.534732233081e-02       2.542054627912e+03 
       4.386973148946e-02       2.175518349198e+03 
       5.100462966136e-02       1.939717051612e+03 
       5.618829785301e-02       1.804082587414e+03 
       6.047102598045e-02       1.706965010138e+03 
       6.429869508276e-02       1.626654749780e+03 
       6.787070360183e-02       1.554216491646e+03 
       7.129285087583e-02       1.485385022099e+03 
       7.462868677075e-02       1.418075960068e+03 
       7.792001020258e-02       1.351425099006e+03 
       8.119631050568e-02       1.285331285193e+03 
       8.447960798191e-02       1.220187691079e+03 
       8.778714694436e-02       1.156689118044e+03 
       9.113299298913e-02       1.095672301075e+03 
       9.452903017963e-02       1.037975978878e+03 
       9.798561015301e-02       9.843189527060e+02 
       1.015119894457e-01       9.351992045951e+02 
       1.051166326394e-01       8.908194587367e+02 
       1.088074274735e-01       8.510439276704e+02 
       1.125918404045e-01       8.153912356323e+02 
       1.164770307828e-01       7.830679933272e+02 
       1.204699355781e-01       7.530469336686e+02 
       1.245773327163e-01       7.241902393159e+02 
       1.288058886179e-01       6.954102240862e+02 
       1.331621939318e-01       6.658476204223e+02 
       1.376527904023e-01       6.350332445812e+02 
       1.422841911072e-01       6.029900209362e+02 
       1.470628958398e-01       5.702367010449e+02 
       1.519954030973e-01       5.376751448728e+02 
       1.570882199348e-01       5.063770551498e+02 
       1.623478708110e-01       4.773186428411e+02 
       1.677809064680e-01       4.511318170168e+02 
       1.733939138359e-01       4.279386973619e+02 
       1.791935279180e-01       4.073182090251e+02 
       1.851864465940e-01       3.884247767846e+02 
       1.913794492616e-01       3.702430827669e+02 
       1.977794202314e-01       3.519156219587e+02 
       2.043933777818e-01       3.330327561311e+02 
       2.112285097862e-01       3.137601065109e+02 
       2.182922168401e-01       2.947295648263e+02 
       2.255921638467e-01       2.767296127145e+02 
       2.331363410883e-01       2.603368298593e+02 
       2.409331359096e-01       2.456644160043e+02 
       2.489914163020e-01       2.323463884761e+02 
       2.573206279079e-01       2.197623721290e+02 
       2.659309062925e-01       2.073842946430e+02 
       2.748332067791e-01       1.950477114387e+02 
       2.840394547472e-01       1.829804451884e+02 
       2.935627201009e-01       1.715771159897e+02 
       3.034174206809e-01       1.610897424243e+02 
       3.136195608030e-01       1.514612537821e+02 
       3.241870129772e-01       1.424104607897e+02 
       3.351398533482e-01       1.336773615075e+02 
       3.465007647436e-01       1.252107621920e+02 
       3.582955257469e-01       1.171412645441e+02 
       3.705536104369e-01       1.095932820268e+02 
       3.833089320912e-01       1.025437187423e+02 
       3.966007763630e-01       9.586403559984e+01 
       4.104749869533e-01       8.946704957198e+01 
       4.249854923383e-01       8.336960649930e+01 
       4.401963000518e-01       7.761200615083e+01 
       4.561841425443e-01       7.217093822985e+01 
       4.730420477991e-01       6.698770061363e+01 
       4.908842495129e-01       6.203991122649e+01 
       5.098530827949e-01       5.733148492864e+01 
       5.301289002142e-01       5.284205321936e+01 
       5.519447198470e-01       4.853950050599e+01 
       5.756085410344e-01       4.440814927956e+01 
       6.015385756096e-01       4.042814662143e+01 
       6.303212306313e-01       3.657050345693e+01 
       6.628113098534e-01       3.280841376846e+01 
       7.003154369429e-01       2.910653879783e+01 
       7.449512932913e-01       2.542084006292e+01 
       8.004074555774e-01       2.169276269986e+01 
       8.736798166354e-01       1.784503857774e+01 
       9.791722321882e-01       1.380041532265e+01 
       1.146213806579e+00       9.627424359416e+00 
       1.411683449905e+00       5.930416980872e+00 
       1.774427187406e+00       3.449800194698e+00 
       2.233820176927e+00       1.980804144089e+00 
       2.812212801217e+00       1.127635862471e+00 
       3.540366158731e+00       6.370273096422e-01 
       4.457056924283e+00       3.573718726767e-01 
       5.611102223792e+00       1.992189732467e-01 
       7.063959177707e+00       1.104158238759e-01 
       8.892997716692e+00       6.087455059541e-02 
       1.119562081257e+01       3.339891818136e-02 
