# Matter power spectrum P(k) at redshift z=0.5
# for k=1.61401e-07 to 10.1956 h/Mpc,
# number of wavenumbers equal to 140
#    1:k (h/Mpc)              2:P (Mpc/h)^3        
       1.614014321691e-07       1.440822466290e+00 
       2.031923644577e-07       1.803102730275e+00 
       2.558040310983e-07       2.256474707213e+00 
       3.220381951890e-07       2.823842486633e+00 
       4.054220674918e-07       3.533869157000e+00 
       5.103961432675e-07       4.422424845977e+00 
       6.425506748412e-07       5.534398852400e+00 
       8.089233729231e-07       6.925967415492e+00 
       1.018374190367e-06       8.667431682069e+00 
       1.282057146969e-06       1.084676923230e+01 
       1.614014321691e-06       1.357407855900e+01 
       2.031923644577e-06       1.698714099089e+01 
       2.558040310983e-06       2.125838094990e+01 
       3.220381951890e-06       2.660357598241e+01 
       4.054220674918e-06       3.329275623145e+01 
       5.103961432675e-06       4.166384325927e+01 
       6.425506748412e-06       5.213971580561e+01 
       8.089233729231e-06       6.524956178099e+01 
       1.018374190367e-05       8.165558955002e+01 
       1.282057146969e-05       1.021864367177e+02 
       1.614014321691e-05       1.278789420242e+02 
       2.031923644577e-05       1.600303465940e+02 
       2.558040310983e-05       2.002634745518e+02 
       3.220381951890e-05       2.506080132757e+02 
       4.054220674918e-05       3.136016583040e+02 
       5.103961432675e-05       3.924155592667e+02 
       6.425506748412e-05       4.910090794885e+02 
       8.089233729231e-05       6.143190931137e+02 
       1.018374190367e-04       7.684883404757e+02 
       1.282057146969e-04       9.611346947520e+02 
       1.614014321691e-04       1.201656702005e+03 
       2.031923644577e-04       1.501557521604e+03 
       2.558040310983e-04       1.874745821768e+03 
       3.220381951890e-04       2.337736633274e+03 
       4.054220674918e-04       2.909635118729e+03 
       5.103961432675e-04       3.611766969947e+03 
       6.425506748412e-04       4.466842378635e+03 
       8.089233729231e-04       5.497503200725e+03 
       1.018374190367e-03       6.723708895415e+03 
       1.282057146969e-03       8.158043263835e+03 
       1.614014321691e-03       9.799169911934e+03 
       2.031923644577e-03       1.162408219403e+04 
       2.558040310983e-03       1.358000460153e+04 
       3.220381951890e-03       1.557835863843e+04 
       4.054220674918e-03       1.749120703241e+04 
       5.103961432675e-03       1.915496236979e+04 
       6.425506748412e-03       2.037096801192e+04 
       8.089233729231e-03       2.096015839415e+04 
       1.018374190367e-02       2.073080831122e+04 
       1.282057146969e-02       1.954142177391e+04 
       1.614014321660e-02       1.734351546395e+04 
       2.031923538855e-02       1.427365915322e+04 
       2.557990736781e-02       1.077098099825e+04 
       3.215758644383e-02       7.594341823547e+03 
       3.947821473438e-02       5.584303550083e+03 
       4.510219928157e-02       4.775746099786e+03 
       4.931587250745e-02       4.392923080727e+03 
       5.288242331548e-02       4.133572434765e+03 
       5.611136150125e-02       3.909793883398e+03 
       5.914758501010e-02       3.689407136919e+03 
       6.207066648113e-02       3.460695844681e+03 
       6.492959917388e-02       3.221775548604e+03 
       6.775721733175e-02       2.976184487807e+03 
       7.057703462133e-02       2.730406534841e+03 
       7.340682827903e-02       2.492123267928e+03 
       7.626066753161e-02       2.268862141656e+03 
       7.915013313811e-02       2.066980571633e+03 
       8.208508719280e-02       1.890994574974e+03 
       8.507417877760e-02       1.743242055325e+03 
       8.812518719727e-02       1.623824369501e+03 
       9.124526137808e-02       1.530736987232e+03 
       9.444109060252e-02       1.460105915222e+03 
       9.771902847312e-02       1.406497026844e+03 
       1.010851841747e-01       1.363337693761e+03 
       1.045454903410e-01       1.323538427863e+03 
       1.081057538532e-01       1.280376750485e+03 
       1.117716939889e-01       1.228584488890e+03 
       1.155489711014e-01       1.165402426565e+03 
       1.194432081847e-01       1.091233593880e+03 
       1.234600071397e-01       1.009556879928e+03 
       1.276049611887e-01       9.260003953311e+02 
       1.318836646485e-01       8.468229640027e+02 
       1.363017211127e-01       7.773045110194e+02 
       1.408647509914e-01       7.205397537953e+02 
       1.455783992929e-01       6.768909067735e+02 
       1.504483444907e-01       6.440960205393e+02 
       1.554803092952e-01       6.179352157332e+02 
       1.606800741310e-01       5.933890298850e+02 
       1.660534941123e-01       5.661500587379e+02 
       1.716065203006e-01       5.340593057613e+02 
       1.773452260258e-01       4.977860743856e+02 
       1.832758390583e-01       4.602781681673e+02 
       1.894047804346e-01       4.252039052700e+02 
       1.957387107739e-01       3.952298219461e+02 
       2.022845849867e-01       3.709860729854e+02 
       2.090497163744e-01       3.510802003955e+02 
       2.160418512707e-01       3.330248796765e+02 
       2.232692555945e-01       3.146186868084e+02 
       2.307408149869e-01       2.950668587414e+02 
       2.384661506229e-01       2.751572024379e+02 
       2.464557533460e-01       2.564055028198e+02 
       2.547211395178e-01       2.398662287144e+02 
       2.632750329584e-01       2.254906114570e+02 
       2.721315786525e-01       2.123888433286e+02 
       2.813065956228e-01       1.996590549138e+02 
       2.908178786704e-01       1.870590837187e+02 
       3.006855617826e-01       1.749809071442e+02 
       3.109325602174e-01       1.638696243921e+02 
       3.215851140758e-01       1.537460831916e+02 
       3.326734642679e-01       1.442785922937e+02 
       3.442327032414e-01       1.352014613300e+02 
       3.563038593505e-01       1.265394148542e+02 
       3.689352979169e-01       1.184253167636e+02 
       3.821845581294e-01       1.108466037800e+02 
       3.961207999307e-01       1.036730250477e+02 
       4.108281207988e-01       9.684049405543e+01 
       4.264101394145e-01       9.036821514368e+01 
       4.429964685519e-01       8.423940791232e+01 
       4.607520816643e-01       7.839531984529e+01 
       4.798912487251e-01       7.280631440239e+01 
       5.006989429498e-01       6.745071517474e+01 
       5.235649627138e-01       6.228608195749e+01 
       5.490407234144e-01       5.727457341122e+01 
       5.779387095361e-01       5.237004311939e+01 
       6.115173900483e-01       4.751566577696e+01 
       6.518499965110e-01       4.263576260999e+01 
       7.026200183535e-01       3.762919826980e+01 
       7.709677629089e-01       3.235595897075e+01 
       8.717849492632e-01       2.665777095484e+01 
       1.033969503038e+00       2.059879810644e+01 
       1.284382673753e+00       1.509649816905e+01 
       1.615908185410e+00       1.104320639347e+01 
       2.034294805233e+00       8.158118032692e+00 
       2.561025395265e+00       6.049033871664e+00 
       3.224139950340e+00       4.469940278416e+00 
       4.058951714664e+00       3.269931323949e+00 
       5.109917458836e+00       2.354244151507e+00 
       6.433004941100e+00       1.660375209755e+00 
       8.098673394548e+00       1.143429605456e+00 
       1.019562573822e+01       7.676224253047e-01 
