# Matter power spectrum P(k) at redshift z=0
# for k=2.07327e-07 to 10.4037 h/Mpc,
# number of wavenumbers equal to 139
#    1:k (h/Mpc)              2:P (Mpc/h)^3        
       2.073268077594e-07       1.458227449302e+00 
       2.610089868345e-07       1.808070118470e+00 
       3.285908462326e-07       2.241843378964e+00 
       4.136713664051e-07       2.779682979147e+00 
       5.207813952991e-07       3.446555424364e+00 
       6.556249325316e-07       4.273416920972e+00 
       8.253828881699e-07       5.298650361006e+00 
       1.039095492377e-06       6.569847051352e+00 
       1.308143720634e-06       8.146015894233e+00 
       1.646855372186e-06       1.010032256399e+01 
       2.073268077594e-06       1.252348582648e+01 
       2.610089868345e-06       1.552798864341e+01 
       3.285908462326e-06       1.925329951313e+01 
       4.136713664051e-06       2.387234636730e+01 
       5.207813952991e-06       2.959954343066e+01 
       6.556249325316e-06       3.670074343960e+01 
       8.253828881699e-06       4.550557677754e+01 
       1.039095492377e-05       5.642274948783e+01 
       1.308143720634e-05       6.995900866360e+01 
       1.646855372186e-05       8.674265241227e+01 
       2.073268077594e-05       1.075526694463e+02 
       2.610089868345e-05       1.333548486542e+02 
       3.285908462326e-05       1.653465107223e+02 
       4.136713664051e-05       2.050118908530e+02 
       5.207813952991e-05       2.541906506748e+02 
       6.556249325316e-05       3.151625181939e+02 
       8.253828881699e-05       3.907516310053e+02 
       1.039095492377e-04       4.844547397464e+02 
       1.308143720634e-04       6.005979000712e+02 
       1.646855372186e-04       7.445264070481e+02 
       2.073268077594e-04       9.228320761898e+02 
       2.610089868345e-04       1.143619856703e+03 
       3.285908462326e-04       1.416811269836e+03 
       4.136713664051e-04       1.754474601891e+03 
       5.207813952991e-04       2.171161581070e+03 
       6.556249325316e-04       2.684218672283e+03 
       8.253828881699e-04       3.314021378897e+03 
       1.039095492377e-03       4.084016563379e+03 
       1.308143720634e-03       5.020321232514e+03 
       1.646855372186e-03       6.150563188937e+03 
       2.073268077594e-03       7.501689718196e+03 
       2.610089868345e-03       9.096213936355e+03 
       3.285908462326e-03       1.094650433548e+04 
       4.136713664051e-03       1.304682692666e+04 
       5.207813952991e-03       1.536266768391e+04 
       6.556249325316e-03       1.781774331995e+04 
       8.253828881699e-03       2.027979353272e+04 
       1.039095492377e-02       2.254708278239e+04 
       1.308143720634e-02       2.434197800348e+04 
       1.646855372135e-02       2.532662285338e+04 
       2.073267925827e-02       2.517150594801e+04 
       2.610024785055e-02       2.371523595351e+04 
       3.280266266575e-02       2.121284773774e+04 
       4.015819487533e-02       1.866565530199e+04 
       4.572992860936e-02       1.712555422736e+04 
       4.993416728427e-02       1.616072087889e+04 
       5.350885825330e-02       1.542937816022e+04 
       5.675306491750e-02       1.480473520924e+04 
       5.980809416663e-02       1.422963113647e+04 
       6.275207096880e-02       1.367491123926e+04 
       6.563333225183e-02       1.312558378732e+04 
       6.848439326903e-02       1.257516801732e+04 
       7.132860899038e-02       1.202289101535e+04 
       7.418368073002e-02       1.147196243891e+04 
       7.706364745458e-02       1.092825867841e+04 
       7.998008626443e-02       1.039915611388e+04 
       8.294287183752e-02       9.892429114095e+03 
       8.596067618297e-02       9.415216065803e+03 
       8.904130838128e-02       8.973094139256e+03 
       9.219195183862e-02       8.569322627686e+03 
       9.541933366236e-02       8.204313164391e+03 
       9.872984773593e-02       7.875388051795e+03 
       1.021296453807e-01       7.576883561001e+03 
       1.056247028043e-01       7.300649708034e+03 
       1.092208715971e-01       7.036977846083e+03 
       1.129239166596e-01       6.775926816736e+03 
       1.167395447140e-01       6.508918202750e+03 
       1.206734257453e-01       6.230337867339e+03 
       1.247312091781e-01       5.938768075439e+03 
       1.289185362362e-01       5.637451076829e+03 
       1.332410496945e-01       5.333710257871e+03 
       1.377044020766e-01       5.037322491810e+03 
       1.423142632506e-01       4.758165455281e+03 
       1.470763283132e-01       4.503718556892e+03 
       1.519963266107e-01       4.277082715636e+03 
       1.570800327214e-01       4.076086740939e+03 
       1.623332802087e-01       3.893827692279e+03 
       1.677619789417e-01       3.720676074658e+03 
       1.733721367751e-01       3.547340914229e+03 
       1.791698863760e-01       3.368066420352e+03 
       1.851615179923e-01       3.182677591389e+03 
       1.913535189738e-01       2.996408739577e+03 
       1.977526208930e-01       2.817379190116e+03 
       2.043658551776e-01       2.652791820514e+03 
       2.112006182703e-01       2.505653586900e+03 
       2.182647474845e-01       2.373604982125e+03 
       2.255666089510e-01       2.250456086729e+03 
       2.331151993617e-01       2.129697095042e+03 
       2.409202636424e-01       2.008074371135e+03 
       2.489924312597e-01       1.887033051582e+03 
       2.573433746271e-01       1.771048462368e+03 
       2.659859940800e-01       1.664061587901e+03 
       2.749346352231e-01       1.566657987013e+03 
       2.842053462132e-01       1.476027680096e+03 
       2.938161849007e-01       1.388556437327e+03 
       3.037875889225e-01       1.302757618639e+03 
       3.141428261551e-01       1.219951566338e+03 
       3.249085488860e-01       1.142249353546e+03 
       3.361154833640e-01       1.070106617110e+03 
       3.477992981677e-01       1.002030276233e+03 
       3.600017117923e-01       9.364755552207e+02 
       3.727719247289e-01       8.734217811266e+02 
       3.861684984764e-01       8.137205101570e+02 
       4.002618606342e-01       7.574510861206e+02 
       4.151377037326e-01       7.037831361978e+02 
       4.309016871471e-01       6.522462131901e+02 
       4.476860846895e-01       6.030468871257e+02 
       4.656594166702e-01       5.561131486753e+02 
       4.850408023312e-01       5.109745501590e+02 
       5.061220448546e-01       4.674561674794e+02 
       5.293029057582e-01       4.254226497364e+02 
       5.551499543913e-01       3.845093508262e+02 
       5.844999119540e-01       3.444366929152e+02 
       6.186524373352e-01       3.047958100457e+02 
       6.597560659444e-01       2.650690706215e+02 
       7.116440971252e-01       2.245500932918e+02 
       7.817804593251e-01       1.823377436443e+02 
       8.857610032444e-01       1.377665243024e+02 
       1.053432590879e+00       9.275346949781e+01 
       1.310447498205e+00       5.580624190093e+01 
       1.648888202437e+00       3.234604111274e+01 
       2.075817126132e+00       1.853940248126e+01 
       2.613298909088e+00       1.053094980677e+01 
       3.289948405260e+00       5.933650249361e+00 
       4.141799650873e+00       3.318883936452e+00 
       5.214216831044e+00       1.844043345633e+00 
       6.564310071207e+00       1.018396604059e+00 
       8.263976759538e+00       5.593150498864e-01 
       1.040373034506e+01       3.056252890574e-01 
