# Matter power spectrum P(k) at redshift z=0
# for k=2.22377e-07 to 11.1572 h/Mpc,
# number of wavenumbers equal to 139
#    1:k (h/Mpc)              2:P (Mpc/h)^3        
       2.223774425327e-07       6.005313237097e-01 
       2.799566134142e-07       7.524638925963e-01 
       3.524444948270e-07       9.428349315672e-01 
       4.437013307846e-07       1.181369254437e+00 
       5.585868805717e-07       1.480252022501e+00 
       7.032192186465e-07       1.854751204440e+00 
       8.853005444161e-07       2.323997516466e+00 
       1.114527352441e-06       2.911961684081e+00 
       1.403106806127e-06       3.648678946597e+00 
       1.766406813695e-06       4.571783355101e+00 
       2.223774425327e-06       5.728430237346e+00 
       2.799566134142e-06       7.177705029343e+00 
       3.524444948270e-06       8.993641513038e+00 
       4.437013307846e-06       1.126900361634e+01 
       5.585868805717e-06       1.412002391143e+01 
       7.032192186465e-06       1.769234077202e+01 
       8.853005444161e-06       2.216843728082e+01 
       1.114527352441e-05       2.777696149313e+01 
       1.403106806127e-05       3.480440339262e+01 
       1.766406813695e-05       4.360972346911e+01 
       2.223774425327e-05       5.464267711435e+01 
       2.799566134142e-05       6.846676476775e+01 
       3.524444948270e-05       8.578796801670e+01 
       4.437013307846e-05       1.074907154639e+02 
       5.585868805717e-05       1.346828678542e+02 
       7.032192186465e-05       1.687519260479e+02 
       8.853005444161e-05       2.114351470231e+02 
       1.114527352441e-04       2.649067844526e+02 
       1.403106806127e-04       3.318861985169e+02 
       1.766406813695e-04       4.157709851204e+02 
       2.223774425327e-04       5.207993242086e+02 
       2.799566134142e-04       6.522450422177e+02 
       3.524444948270e-04       8.166468638822e+02 
       4.437013307846e-04       1.022069461853e+03 
       5.585868805717e-04       1.278388170230e+03 
       7.032192186465e-04       1.597581957506e+03 
       8.853005444161e-04       1.994006478516e+03 
       1.114527352441e-03       2.484580654486e+03 
       1.403106806127e-03       3.088736769590e+03 
       1.766406813695e-03       3.827929042249e+03 
       2.223774425327e-03       4.724481861869e+03 
       2.799566134142e-03       5.799352205398e+03 
       3.524444948270e-03       7.068528109416e+03 
       4.437013307846e-03       8.537558492415e+03 
       5.585868805717e-03       1.014957611703e+04 
       7.032192186465e-03       1.192976116377e+04 
       8.853005444161e-03       1.376297197664e+04 
       1.114527352441e-02       1.550652657463e+04 
       1.403106806127e-02       1.694917008957e+04 
       1.766406813680e-02       1.781447166788e+04 
       2.223774363942e-02       1.780733726919e+04 
       2.799532190047e-02       1.674537242879e+04 
       3.520823462564e-02       1.478747304462e+04 
       4.342207681847e-02       1.272086110941e+04 
       4.991858677171e-02       1.151109032264e+04 
       5.472562899550e-02       1.084682774731e+04 
       5.875953389449e-02       1.039638962633e+04 
       6.239477224544e-02       1.003913961377e+04 
       6.580369661786e-02       9.720631411116e+03 
       6.907977663437e-02       9.411832740670e+03 
       7.228004357067e-02       9.096375995271e+03 
       7.544245622133e-02       8.765742090924e+03 
       7.859404863995e-02       8.417106598631e+03 
       8.175516612437e-02       8.052122955145e+03 
       8.494184751903e-02       7.675976812824e+03 
       8.816725036645e-02       7.296438949104e+03 
       9.144254684653e-02       6.922829826573e+03 
       9.477751031944e-02       6.564911683319e+03 
       9.818091237021e-02       6.231780939409e+03 
       1.016607991079e-01       5.930853255338e+03 
       1.052246878514e-01       5.667022419733e+03 
       1.088797097256e-01       5.442048675145e+03 
       1.126327145238e-01       5.254207508517e+03 
       1.164903486287e-01       5.098231062894e+03 
       1.204591133086e-01       4.965602546517e+03 
       1.245454084903e-01       4.845303502101e+03 
       1.287555656639e-01       4.725117275342e+03 
       1.330958726244e-01       4.593500785629e+03 
       1.375725921234e-01       4.441819943117e+03 
       1.421919760805e-01       4.266451130277e+03 
       1.469602767267e-01       4.070039251082e+03 
       1.518837558671e-01       3.861270343913e+03 
       1.569686933322e-01       3.652952231294e+03 
       1.622213956105e-01       3.458837251959e+03 
       1.676482056098e-01       3.290109982729e+03 
       1.732555144625e-01       3.152520203107e+03 
       1.790497762756e-01       3.044830630273e+03 
       1.850375267078e-01       2.958914651778e+03 
       1.912254062529e-01       2.881704974878e+03 
       1.976201891036e-01       2.799016409468e+03 
       2.042288184715e-01       2.700543718875e+03 
       2.110584492618e-01       2.584124764139e+03 
       2.181164990319e-01       2.456794139798e+03 
       2.254107082327e-01       2.331470230616e+03 
       2.329492108381e-01       2.220779039847e+03 
       2.407406166302e-01       2.131249604411e+03 
       2.487941066449e-01       2.060603960726e+03 
       2.571195436103e-01       1.999217074239e+03 
       2.657275996684e-01       1.935333136589e+03 
       2.746299042723e-01       1.861840708920e+03 
       2.838392159648e-01       1.780446851395e+03 
       2.933696228156e-01       1.699788279818e+03 
       3.032367777077e-01       1.628654443813e+03 
       3.134581765460e-01       1.569647138449e+03 
       3.240534899595e-01       1.517932725985e+03 
       3.350449624413e-01       1.465791143173e+03 
       3.464578974412e-01       1.409371064508e+03 
       3.583212532184e-01       1.351568051348e+03 
       3.706683830314e-01       1.298071268196e+03 
       3.835379656457e-01       1.251006217280e+03 
       3.969751899672e-01       1.207195354833e+03 
       4.110332836836e-01       1.162617603039e+03 
       4.257755146432e-01       1.117324401165e+03 
       4.412778527957e-01       1.074321101587e+03 
       4.576325724428e-01       1.034500192020e+03 
       4.749532211465e-01       9.956514336787e+02 
       4.933816219713e-01       9.566086396762e+02 
       5.130979820634e-01       9.186700465765e+02 
       5.343358917214e-01       8.820706344664e+02 
       5.574052923985e-01       8.455222128652e+02 
       5.827289543568e-01       8.090710649926e+02 
       6.109029310911e-01       7.727250722389e+02 
       6.428018945215e-01       7.356243276897e+02 
       6.797738332057e-01       6.974109439445e+02 
       7.240256894262e-01       6.570294242692e+02 
       7.794491183496e-01       6.130770294770e+02 
       8.535267063352e-01       5.630784041441e+02 
       9.617993434690e-01       5.029286903712e+02 
       1.135080756249e+00       4.275550903579e+02 
       1.405892268079e+00       3.403419740561e+02 
       1.768314867066e+00       2.574707342970e+02 
       2.226153201448e+00       1.863608882278e+02 
       2.802560772148e+00       1.292948196000e+02 
       3.528214974132e+00       8.649953061321e+01 
       4.441759489208e+00       5.620638959933e+01 
       5.591843894041e+00       3.571080288377e+01 
       7.039714376995e+00       2.230939026234e+01 
       8.862475320971e+00       1.376471545082e+01 
       1.115719539297e+01       8.415724961011e+00 
