# Matter power spectrum P(k) at redshift z=1
# for k=2.20626e-07 to 11.0726 h/Mpc,
# number of wavenumbers equal to 139
#    1:k (h/Mpc)              2:P (Mpc/h)^3        
       2.206260355587e-07       2.737631870908e-01 
       2.777517226682e-07       3.435935858002e-01 
       3.496687018366e-07       4.312360379439e-01 
       4.402068144512e-07       5.412339693627e-01 
       5.541875451575e-07       6.792897241122e-01 
       6.976807834987e-07       8.525601765302e-01 
       8.783280676669e-07       1.070027746121e+00 
       1.105749524278e-06       1.342966049333e+00 
       1.392056175193e-06       1.685524326490e+00 
       1.752494893595e-06       2.115460940653e+00 
       2.206260355587e-06       2.655063968921e+00 
       2.777517226682e-06       3.332306607481e+00 
       3.496687018366e-06       4.182297276345e+00 
       4.402068144512e-06       5.249099578546e+00 
       5.541875451575e-06       6.588016423094e+00 
       6.976807834987e-06       8.268456645146e+00 
       8.783280676669e-06       1.037753258147e+01 
       1.105749524278e-05       1.302457479467e+01 
       1.392056175193e-05       1.634679739675e+01 
       1.752494893595e-05       2.051640647031e+01 
       2.206260355587e-05       2.574951772347e+01 
       2.777517226682e-05       3.231734095400e+01 
       3.496687018366e-05       4.056020177056e+01 
       4.402068144512e-05       5.090510885415e+01 
       5.541875451575e-05       6.388774051312e+01 
       6.976807834987e-05       8.017991711474e+01 
       8.783280676669e-05       1.006238387342e+02 
       1.105749524278e-04       1.262745772312e+02 
       1.392056175193e-04       1.584524651206e+02 
       1.752494893595e-04       1.988070061325e+02 
       2.206260355587e-04       2.493935244160e+02 
       2.777517226682e-04       3.127625795908e+02 
       3.496687018366e-04       3.920595945595e+02 
       4.402068144512e-04       4.911274443640e+02 
       5.541875451575e-04       6.145976534033e+02 
       6.976807834987e-04       7.679478345978e+02 
       8.783280676669e-04       9.574980465681e+02 
       1.105749524278e-03       1.190315579852e+03 
       1.392056175193e-03       1.473964646465e+03 
       1.752494893595e-03       1.815931551323e+03 
       2.206260355587e-03       2.222533187537e+03 
       2.777517226682e-03       2.697341602540e+03 
       3.496687018366e-03       3.239056682296e+03 
       4.402068144512e-03       3.838928857720e+03 
       5.541875451575e-03       4.477918758743e+03 
       6.976807834987e-03       5.116994951934e+03 
       8.783280676669e-03       5.721279956444e+03 
       1.105749524278e-02       6.224983972599e+03 
       1.392056175193e-02       6.555646731888e+03 
       1.752494893595e-02       6.636643896831e+03 
       2.206260354258e-02       6.404082454471e+03 
       2.777515287946e-02       5.839408668447e+03 
       3.496230837795e-02       5.015108979963e+03 
       4.378007505963e-02       4.131723099184e+03 
       5.232753343063e-02       3.508565339415e+03 
       5.845522058151e-02       3.178596424149e+03 
       6.331047622315e-02       2.961109832036e+03 
       6.755476765313e-02       2.789290463814e+03 
       7.146582568545e-02       2.638924421617e+03 
       7.518316442021e-02       2.499511716016e+03 
       7.878737915804e-02       2.366278020142e+03 
       8.232996139609e-02       2.237332332117e+03 
       8.584641760684e-02       2.112397321078e+03 
       8.936276831763e-02       1.992112500473e+03 
       9.289906966444e-02       1.877577792833e+03 
       9.647145896248e-02       1.770016886115e+03 
       1.000934104683e-01       1.670516727588e+03 
       1.037765416252e-01       1.579829934781e+03 
       1.075311501167e-01       1.498237757891e+03 
       1.113665826596e-01       1.425474762991e+03 
       1.152914946916e-01       1.360716999094e+03 
       1.193140370095e-01       1.302635949883e+03 
       1.234419921045e-01       1.249520425665e+03 
       1.276828749843e-01       1.199464742235e+03 
       1.320440083775e-01       1.150612298491e+03 
       1.365325791185e-01       1.101426825516e+03 
       1.411556805195e-01       1.050943795002e+03 
       1.459203442252e-01       9.989407719118e+02 
       1.508335641809e-01       9.459684440418e+02 
       1.559023147698e-01       8.932117302913e+02 
       1.611335647879e-01       8.421962970570e+02 
       1.665342886735e-01       7.944059628264e+02 
       1.721114762439e-01       7.509080015336e+02 
       1.778721420824e-01       7.120852016820e+02 
       1.838233356560e-01       6.775471854766e+02 
       1.899721531992e-01       6.462519097121e+02 
       1.963257523753e-01       6.168183731992e+02 
       2.028913707098e-01       5.879540752058e+02 
       2.096763487752e-01       5.588631844099e+02 
       2.166881591059e-01       5.294766973710e+02 
       2.239344418157e-01       5.003940077754e+02 
       2.314230479055e-01       4.725496211058e+02 
       2.391620912762e-01       4.467565787414e+02 
       2.471600105160e-01       4.233427531923e+02 
       2.554256416284e-01       4.020468784814e+02 
       2.639683030138e-01       3.822100634611e+02 
       2.727978942361e-01       3.631502171551e+02 
       2.819250104194e-01       3.445073171289e+02 
       2.913610745493e-01       3.263595237293e+02 
       3.011184905419e-01       3.090551564051e+02 
       3.112108207201e-01       2.928997389993e+02 
       3.216529923798e-01       2.779303109825e+02 
       3.324615394951e-01       2.639241968152e+02 
       3.436548874299e-01       2.505987443638e+02 
       3.552536909314e-01       2.378144151081e+02 
       3.672812389130e-01       2.256129254157e+02 
       3.797639438931e-01       2.140891582071e+02 
       3.927319399215e-01       2.032502717131e+02 
       4.062198210730e-01       1.930014047493e+02 
       4.202675641766e-01       1.832413299776e+02 
       4.349216959574e-01       1.739361369459e+02 
       4.502367887080e-01       1.650927228884e+02 
       4.662774039242e-01       1.566932969129e+02 
       4.831206565018e-01       1.486868383886e+02 
       5.008596538293e-01       1.410303321957e+02 
       5.196081928005e-01       1.337026877021e+02 
       5.395073057398e-01       1.266793378137e+02 
       5.607345922664e-01       1.199232328661e+02 
       5.835178689494e-01       1.133998179996e+02 
       6.081557293765e-01       1.070766082627e+02 
       6.350495792340e-01       1.009130212457e+02 
       6.647555541322e-01       9.486355634936e+01 
       6.980726308504e-01       8.887338983586e+01 
       7.362005118157e-01       8.287266455287e+01 
       7.810412242350e-01       7.676689096721e+01 
       8.358194955671e-01       7.042122768536e+01 
       9.064642741180e-01       6.363016888585e+01 
       1.004872056516e+00       5.607840454070e+01 
       1.155950904102e+00       4.738520865060e+01 
       1.400817805321e+00       3.772448639585e+01 
       1.755105594765e+00       2.882280714899e+01 
       2.209280257623e+00       2.169894334827e+01 
       2.781317295501e+00       1.606993476925e+01 
       3.501471019712e+00       1.164258513325e+01 
       4.408090845377e+00       8.215854672143e+00 
       5.549457582742e+00       5.630354064862e+00 
       6.986353172588e+00       3.742918209516e+00 
       8.795297544739e+00       2.416765093580e+00 
       1.107262358336e+01       1.520701785056e+00 
