# Matter power spectrum P(k) at redshift z=0.5
# for k=1.95156e-07 to 12.3288 h/Mpc,
# number of wavenumbers equal to 140
#    1:k (h/Mpc)              2:P (Mpc/h)^3        
       1.951560737766e-07       8.561268565676e-01 
       2.456869405434e-07       1.070503571718e+00 
       3.093015327960e-07       1.338560854328e+00 
       3.893875595438e-07       1.673740477684e+00 
       4.902098937462e-07       2.092850074264e+00 
       6.171376923500e-07       2.616905956260e+00 
       7.769303234755e-07       3.272186979894e+00 
       9.780973274167e-07       4.091552299091e+00 
       1.231351580693e-06       5.116089085354e+00 
       1.550179795787e-06       6.397172835981e+00 
       1.951560737766e-06       7.999043577462e+00 
       2.456869405434e-06       1.000202713376e+01 
       3.093015327960e-06       1.250656296357e+01 
       3.893875595438e-06       1.563824048839e+01 
       4.902098937462e-06       1.955409634477e+01 
       6.171376923500e-06       2.445048812671e+01 
       7.769303234755e-06       3.057293901324e+01 
       9.780973274167e-06       3.822844608740e+01 
       1.231351580693e-05       4.780086786591e+01 
       1.550179795787e-05       5.977015928490e+01 
       1.951560737766e-05       7.473641206835e+01 
       2.456869405434e-05       9.344989282786e+01 
       3.093015327960e-05       1.168485591509e+02 
       3.893875595438e-05       1.461048834684e+02 
       4.902098937462e-05       1.826842309394e+02 
       6.171376923500e-05       2.284175180699e+02 
       7.769303234755e-05       2.855914002563e+02 
       9.780973274167e-05       3.570597361934e+02 
       1.231351580693e-04       4.463804088827e+02 
       1.550179795787e-04       5.579814523424e+02 
       1.951560737766e-04       6.973592853095e+02 
       2.456869405434e-04       8.713087562920e+02 
       3.093015327960e-04       1.088178334624e+03 
       3.893875595438e-04       1.358132901633e+03 
       4.902098937462e-04       1.693391632082e+03 
       6.171376923500e-04       2.108393696002e+03 
       7.769303234755e-04       2.619833568501e+03 
       9.780973274167e-04       3.246473395789e+03 
       1.231351580693e-03       4.008496131588e+03 
       1.550179795787e-03       4.925967067294e+03 
       1.951560737766e-03       6.016130767262e+03 
       2.456869405434e-03       7.289319448638e+03 
       3.093015327960e-03       8.743241977409e+03 
       3.893875595438e-03       1.035603140988e+04 
       4.902098937462e-03       1.207741527329e+04 
       6.171376923500e-03       1.381955699320e+04 
       7.769303234755e-03       1.544866003442e+04 
       9.780973274167e-03       1.677836201423e+04 
       1.231351580693e-02       1.756972810933e+04 
       1.550179795787e-02       1.754985583272e+04 
       1.951560734791e-02       1.647694771308e+04 
       2.456865962277e-02       1.429059441939e+04 
       3.092344992525e-02       1.133612627156e+04 
       3.863779297315e-02       8.519032304538e+03 
       4.576329915953e-02       6.933401247526e+03 
       5.086241444486e-02       6.274076790739e+03 
       5.496269737661e-02       5.925633795801e+03 
       5.857525312793e-02       5.690291313600e+03 
       6.191893183185e-02       5.492666047426e+03 
       6.510575327005e-02       5.296814230484e+03 
       6.820130013385e-02       5.084320524405e+03 
       7.124788912472e-02       4.846914226000e+03 
       7.427492675487e-02       4.583348947486e+03 
       7.730409996773e-02       4.297623933607e+03 
       8.035221403215e-02       3.997558791264e+03 
       8.343285267747e-02       3.693388659002e+03 
       8.655740304860e-02       3.396330898778e+03 
       8.973571683065e-02       3.117206044938e+03 
       9.297655232732e-02       2.865247107452e+03 
       9.628787899968e-02       2.647211562719e+03 
       9.967709246698e-02       2.466844834897e+03 
       1.031511693532e-01       2.324662726857e+03 
       1.067167805826e-01       2.217966046066e+03 
       1.103803752634e-01       2.141011750540e+03 
       1.141482433054e-01       2.085350076025e+03 
       1.180265623867e-01       2.040453466643e+03 
       1.220214332520e-01       1.994823509352e+03 
       1.261389062499e-01       1.937672754102e+03 
       1.303850013067e-01       1.861008189356e+03 
       1.347657230589e-01       1.761589405059e+03 
       1.392870725541e-01       1.642010040304e+03 
       1.439550567188e-01       1.510280141394e+03 
       1.487756966579e-01       1.377815644783e+03 
       1.537550357646e-01       1.256429735964e+03 
       1.588991485642e-01       1.155341581336e+03 
       1.642141511808e-01       1.079081926280e+03 
       1.697062142959e-01       1.026638918230e+03 
       1.753815794529e-01       9.917691833243e+02 
       1.812465795523e-01       9.644422302712e+02 
       1.873076643775e-01       9.335617172415e+02 
       1.935714319904e-01       8.906946990024e+02 
       2.000446668491e-01       8.334524285636e+02 
       2.067343855256e-01       7.665044487130e+02 
       2.136478909524e-01       6.991967500974e+02 
       2.207928362136e-01       6.409546602992e+02 
       2.281772990299e-01       5.970415376450e+02 
       2.358098682830e-01       5.666211991293e+02 
       2.436997442055e-01       5.436016443938e+02 
       2.518568542466e-01       5.198890382246e+02 
       2.602919871461e-01       4.898922075314e+02 
       2.690169484438e-01       4.537335035032e+02 
       2.780447415765e-01       4.165903576380e+02 
       2.873897799319e-01       3.844970594376e+02 
       2.970681368442e-01       3.599940358879e+02 
       3.070978426650e-01       3.407874638348e+02 
       3.174992409171e-01       3.220798388632e+02 
       3.282954194364e-01       3.007403125228e+02 
       3.395127377298e-01       2.777574305478e+02 
       3.511814791653e-01       2.565557743264e+02 
       3.633366669982e-01       2.391017753414e+02 
       3.760190980653e-01       2.240942431957e+02 
       3.892766695276e-01       2.089733716867e+02 
       4.031661058995e-01       1.931256034984e+02 
       4.177552416704e-01       1.781490442999e+02 
       4.331260889249e-01       1.650767524325e+02 
       4.493790363731e-01       1.529496814560e+02 
       4.666387158942e-01       1.407615647835e+02 
       4.850623894604e-01       1.290598899284e+02 
       5.048522560241e-01       1.183638541564e+02 
       5.262740573815e-01       1.080657932143e+02 
       5.496861922369e-01       9.801433562735e+01 
       5.755871356081e-01       8.850998505116e+01 
       6.046963882978e-01       7.923702183827e+01 
       6.381005338609e-01       7.019799331665e+01 
       6.775345113496e-01       6.127681428277e+01 
       7.259654880751e-01       5.235339178180e+01 
       7.889046318319e-01       4.325254695312e+01 
       8.775119592198e-01       3.379919850079e+01 
       1.015036366073e+00       2.403424248689e+01 
       1.237148160076e+00       1.502527177882e+01 
       1.552216937620e+00       8.696722670500e+00 
       1.953985925319e+00       4.952986496342e+00 
       2.459921778042e+00       2.799392148819e+00 
       3.096858036774e+00       1.571488158900e+00 
       3.898713279213e+00       8.767421285203e-01 
       4.908189220501e+00       4.863801883732e-01 
       6.179044135583e+00       2.684270480443e-01 
       7.778955682883e+00       1.474352966947e-01 
       9.793124986402e+00       8.062256563410e-02 
       1.232881390626e+01       4.390604064276e-02 
