# Matter power spectrum P(k) at redshift z=1.5
# for k=2.25597e-07 to 11.3224 h/Mpc,
# number of wavenumbers equal to 139
#    1:k (h/Mpc)              2:P (Mpc/h)^3        
       2.255969486845e-07       1.581300011484e-01 
       2.840097315221e-07       1.984377407735e-01 
       3.575470682100e-07       2.490200256701e-01 
       4.501250900821e-07       3.124958636081e-01 
       5.666739143905e-07       3.921518538611e-01 
       7.134001910271e-07       4.921123582103e-01 
       8.981176292628e-07       6.175530484043e-01 
       1.130663106259e-06       7.749688875714e-01 
       1.423420516648e-06       9.725104202305e-01 
       1.791980260077e-06       1.220405783730e+00 
       2.255969486845e-06       1.531490288881e+00 
       2.840097315221e-06       1.921870991803e+00 
       3.575470682100e-06       2.411760660986e+00 
       4.501250900821e-06       3.026524317883e+00 
       5.666739143905e-06       3.797992525426e+00 
       7.134001910271e-06       4.766109405215e+00 
       8.981176292628e-06       5.981000673427e+00 
       1.130663106259e-05       7.505568694342e+00 
       1.423420516648e-05       9.418748759034e+00 
       1.791980260077e-05       1.181959489119e+01 
       2.255969486845e-05       1.483240610447e+01 
       2.840097315221e-05       1.861315733947e+01 
       3.575470682100e-05       2.335756561419e+01 
       4.501250900821e-05       2.931120425610e+01 
       5.666739143905e-05       3.678217933029e+01 
       7.134001910271e-05       4.615700574575e+01 
       8.981176292628e-05       5.792046751129e+01 
       1.130663106259e-04       7.268041640950e+01 
       1.423420516648e-04       9.119864715334e+01 
       1.791980260077e-04       1.144291618938e+02 
       2.255969486845e-04       1.435652508415e+02 
       2.840097315221e-04       1.800967661076e+02 
       3.575470682100e-04       2.258785716942e+02 
       4.501250900821e-04       2.832101397158e+02 
       5.666739143905e-04       3.549243284839e+02 
       7.134001910271e-04       4.444804482436e+02 
       8.981176292628e-04       5.560533356289e+02 
       1.130663106259e-03       6.946067068640e+02 
       1.423420516648e-03       8.659301231033e+02 
       1.791980260077e-03       1.076586455636e+03 
       2.255969486845e-03       1.333666317675e+03 
       2.840097315221e-03       1.644263398341e+03 
       3.575470682100e-03       2.014587338458e+03 
       4.501250900821e-03       2.448537748817e+03 
       5.666739143905e-03       2.937853890155e+03 
       7.134001910271e-03       3.486279203522e+03 
       8.981176292628e-03       4.069296743896e+03 
       1.130663106259e-02       4.652081287665e+03 
       1.423420516648e-02       5.180784353061e+03 
       1.791980259836e-02       5.582690826381e+03 
       2.255968977674e-02       5.776894813659e+03 
       2.839935139006e-02       5.704861531381e+03 
       3.564460217390e-02       5.384817718632e+03 
       4.316904578222e-02       4.997705433940e+03 
       4.866423687340e-02       4.738171205462e+03 
       5.291282822981e-02       4.554637560549e+03 
       5.657729830003e-02       4.404220474312e+03 
       5.992901641417e-02       4.269233931520e+03 
       6.310019094098e-02       4.141111650131e+03 
       6.616554693769e-02       4.015298881863e+03 
       6.917206587728e-02       3.889417221586e+03 
       7.215174361928e-02       3.762475064265e+03 
       7.512779201901e-02       3.634457258637e+03 
       7.811795096514e-02       3.506060136422e+03 
       8.113639050350e-02       3.378476541949e+03 
       8.419486793405e-02       3.253193699079e+03 
       8.730346519944e-02       3.131791880677e+03 
       9.047107706562e-02       3.015744806677e+03 
       9.370574465694e-02       2.906231614464e+03 
       9.701488933780e-02       2.803975285036e+03 
       1.004054802388e-01       2.709122997384e+03 
       1.038841563080e-01       2.621186003207e+03 
       1.074573163961e-01       2.539055374056e+03 
       1.111311863637e-01       2.461106707921e+03 
       1.149118693621e-01       2.385398946530e+03 
       1.188053836081e-01       2.309957475731e+03 
       1.228176907822e-01       2.233110590496e+03 
       1.269547173896e-01       2.153820725896e+03 
       1.312223708965e-01       2.071933409390e+03 
       1.356265521054e-01       1.988262702154e+03 
       1.401731650024e-01       1.904459096766e+03 
       1.448681251556e-01       1.822657314717e+03 
       1.497173676479e-01       1.744969705241e+03 
       1.547268554668e-01       1.672946757356e+03 
       1.599025892325e-01       1.607150868000e+03 
       1.652506191251e-01       1.546977450579e+03 
       1.707770598536e-01       1.490807201082e+03 
       1.764881095003e-01       1.436491795269e+03 
       1.823900730655e-01       1.382062015985e+03 
       1.884893915407e-01       1.326428706371e+03 
       1.947926773393e-01       1.269784565730e+03 
       2.013067569412e-01       1.213487802303e+03 
       2.080387216452e-01       1.159429481549e+03 
       2.149959873991e-01       1.109153686330e+03 
       2.221863647931e-01       1.063148830298e+03 
       2.296181404732e-01       1.020666656358e+03 
       2.373001714843e-01       9.801779892102e+02 
       2.452419943934e-01       9.402426833879e+02 
       2.534539515152e-01       9.003028333876e+02 
       2.619473371901e-01       8.608961736923e+02 
       2.707345679014e-01       8.231396644776e+02 
       2.798293811186e-01       7.878568036673e+02 
       2.892470692182e-01       7.549971975200e+02 
       2.990047567706e-01       7.237714439927e+02 
       3.091217320711e-01       6.933551939973e+02 
       3.196198472944e-01       6.635372970585e+02 
       3.305240064107e-01       6.347350115490e+02 
       3.418627665923e-01       6.074148749458e+02 
       3.536690880481e-01       5.815605024255e+02 
       3.659812803271e-01       5.567426416623e+02 
       3.788442120598e-01       5.326354074429e+02 
       3.923108789424e-01       5.093039677799e+02 
       4.064444665191e-01       4.869349744313e+02 
       4.213211082393e-01       4.654672782529e+02 
       4.370336394776e-01       4.446697237241e+02 
       4.536968093360e-01       4.244527411579e+02 
       4.714546786951e-01       4.048485924568e+02 
       4.904913885083e-01       3.857763598733e+02 
       5.110472890571e-01       3.670893537131e+02 
       5.334439087786e-01       3.487130871051e+02 
       5.581241150679e-01       3.305367459606e+02 
       5.857196690350e-01       3.123882221754e+02 
       6.171710123236e-01       2.940789738433e+02 
       6.539532897204e-01       2.753231004470e+02 
       6.985347930285e-01       2.557094811743e+02 
       7.553835634147e-01       2.345938343152e+02 
       8.333305228866e-01       2.109614122059e+02 
       9.508966578340e-01       1.833902497759e+02 
       1.141467821676e+00       1.513755438361e+02 
       1.425787402870e+00       1.193489500386e+02 
       1.794488490058e+00       9.189233413092e+01 
       2.259122972842e+00       6.881702566867e+01 
       2.844067312566e+00       4.967559829207e+01 
       3.580468612642e+00       3.441567920282e+01 
       4.507542922586e+00       2.293007910519e+01 
       5.674660329997e+00       1.478102725695e+01 
       7.143974092733e+00       9.281684469947e+00 
       8.993730526541e+00       5.712903050813e+00 
       1.132243590669e+01       3.464238224238e+00 
