# Matter power spectrum P(k) at redshift z=2
# for k=2.0417e-07 to 10.2446 h/Mpc,
# number of wavenumbers equal to 139
#    1:k (h/Mpc)              2:P (Mpc/h)^3        
       2.041702171830e-07       1.413214972511e-01 
       2.570350747432e-07       1.770998648254e-01 
       3.235879873166e-07       2.219362426925e-01 
       4.073731401842e-07       2.781238475567e-01 
       5.128523982602e-07       3.485364697298e-01 
       6.456429166694e-07       4.367754569179e-01 
       8.128162747400e-07       5.473539098622e-01 
       1.023275063390e-06       6.859275105657e-01 
       1.288226980557e-06       8.595837886925e-01 
       1.621781681982e-06       1.077204622308e+00 
       2.041702171830e-06       1.349920509284e+00 
       2.570350747432e-06       1.691679846376e+00 
       3.235879873166e-06       2.119962327851e+00 
       4.073731401842e-06       2.656672944558e+00 
       5.128523982602e-06       3.329262299400e+00 
       6.456429166694e-06       4.172130515912e+00 
       8.128162747400e-06       5.228386501222e+00 
       1.023275063390e-05       6.552052456862e+00 
       1.288226980557e-05       8.210826218972e+00 
       1.621781681982e-05       1.028954236199e+01 
       2.041702171830e-05       1.289450842223e+01 
       2.570350747432e-05       1.615893665749e+01 
       3.235879873166e-05       2.024974649017e+01 
       4.073731401842e-05       2.537608023356e+01 
       5.128523982602e-05       3.179995708979e+01 
       6.456429166694e-05       3.984958948352e+01 
       8.128162747400e-05       4.993600138779e+01 
       1.023275063390e-04       6.257371705788e+01 
       1.288226980557e-04       7.840641765380e+01 
       1.621781681982e-04       9.823856366423e+01 
       2.041702171830e-04       1.230739908284e+02 
       2.570350747432e-04       1.541622870722e+02 
       3.235879873166e-04       1.930531402493e+02 
       4.073731401842e-04       2.416574957492e+02 
       5.128523982602e-04       3.023119325905e+02 
       6.456429166694e-04       3.778390989203e+02 
       8.128162747400e-04       4.715932181456e+02 
       1.023275063390e-03       5.874772194347e+02 
       1.288226980557e-03       7.299137613417e+02 
       1.621781681982e-03       9.037257547748e+02 
       2.041702171830e-03       1.113820607515e+03 
       2.570350747432e-03       1.364582527452e+03 
       3.235879873166e-03       1.658969119440e+03 
       4.073731401842e-03       1.997200473386e+03 
       5.128523982602e-03       2.372922203903e+03 
       6.456429166694e-03       2.777885540111e+03 
       8.128162747400e-03       3.189742804439e+03 
       1.023275063390e-02       3.574997582806e+03 
       1.288226980557e-02       3.885802830232e+03 
       1.621781681953e-02       4.061820902776e+03 
       2.041702070683e-02       4.041843849762e+03 
       2.570302707647e-02       3.793348678358e+03 
       3.231352569502e-02       3.360372191501e+03 
       3.968479419532e-02       2.920893661771e+03 
       4.535971563005e-02       2.664631920520e+03 
       4.960729946002e-02       2.514514529032e+03 
       5.320019404592e-02       2.406048765802e+03 
       5.645183434186e-02       2.315687167049e+03 
       5.950876177009e-02       2.232838340528e+03 
       6.245137356484e-02       2.152032684975e+03 
       6.532913604229e-02       2.070394618427e+03 
       6.817518277206e-02       1.986640867221e+03 
       7.101323161328e-02       1.900598197564e+03 
       7.386120778415e-02       1.812908214416e+03 
       7.673329331089e-02       1.724795733654e+03 
       7.964115873352e-02       1.637852459887e+03 
       8.259474034134e-02       1.553821912014e+03 
       8.560275057488e-02       1.474388296189e+03 
       8.867302441059e-02       1.400980473865e+03 
       9.181276091355e-02       1.334603600176e+03 
       9.502869548333e-02       1.275710956826e+03 
       9.832722490097e-02       1.224126547860e+03 
       1.017144993806e-01       1.179027783855e+03 
       1.051964910191e-01       1.138999084529e+03 
       1.087790450291e-01       1.102168802118e+03 
       1.124679182139e-01       1.066435570235e+03 
       1.162688078915e-01       1.029776631396e+03 
       1.201873736439e-01       9.906015872095e+02 
       1.242292537207e-01       9.480825606770e+02 
       1.284000775581e-01       9.023673834913e+02 
       1.327054756298e-01       8.545903815255e+02 
       1.371510876906e-01       8.066398980823e+02 
       1.417425703659e-01       7.607169031649e+02 
       1.464856049793e-01       7.187904817896e+02 
       1.513859064664e-01       6.820940231912e+02 
       1.564492341986e-01       6.507958640019e+02 
       1.616814055258e-01       6.239379992518e+02 
       1.670883128337e-01       5.996867681184e+02 
       1.726759449042e-01       5.758760977014e+02 
       1.784504133686e-01       5.507241620884e+02 
       1.844179850416e-01       5.234800109353e+02 
       1.905851209474e-01       4.947005601776e+02 
       1.969585228787e-01       4.659722692718e+02 
       2.035451883945e-01       4.391653871813e+02 
       2.103524752631e-01       4.155690967314e+02 
       2.173881765050e-01       3.953241585233e+02 
       2.246606074143e-01       3.774226101564e+02 
       2.321787062381e-01       3.602874803749e+02 
       2.399521506151e-01       3.426590779425e+02 
       2.479914924344e-01       3.242869647953e+02 
       2.563083145217e-01       3.059632437118e+02 
       2.649154135491e-01       2.888565382382e+02 
       2.738270148701e-01       2.736366483346e+02 
       2.830590267130e-01       2.600398363563e+02 
       2.926293434788e-01       2.471792292791e+02 
       3.025582109973e-01       2.343253398730e+02 
       3.128686708291e-01       2.214763622581e+02 
       3.235871065199e-01       2.091999949861e+02 
       3.347439228450e-01       1.979455504233e+02 
       3.463744005882e-01       1.875777125954e+02 
       3.585197859715e-01       1.776131806729e+02 
       3.712286981109e-01       1.678190570564e+02 
       3.845589740994e-01       1.584007764926e+02 
       3.985801265007e-01       1.495798606269e+02 
       4.133766740690e-01       1.412366232584e+02 
       4.290527440035e-01       1.331434438229e+02 
       4.457385700165e-01       1.253147023552e+02 
       4.635998935924e-01       1.178448914137e+02 
       4.828519484295e-01       1.106425970729e+02 
       5.037809365185e-01       1.036167621397e+02 
       5.267782507925e-01       9.678547040658e+01 
       5.523974154870e-01       9.008070743990e+01 
       5.814537587112e-01       8.343212570068e+01 
       6.152096513037e-01       7.677226483801e+01 
       6.557437306715e-01       6.998276934766e+01 
       7.067468983599e-01       6.290497566199e+01 
       7.753692732106e-01       5.530111165491e+01 
       8.765186847178e-01       4.687232698793e+01 
       1.039178051930e+00       3.758617922657e+01 
       1.290575926919e+00       2.870806636344e+01 
       1.623671038535e+00       2.174643860549e+01 
       2.044067075690e+00       1.646058009196e+01 
       2.573327953106e+00       1.235918468196e+01 
       3.239627953036e+00       9.138797986523e+00 
       4.078449954835e+00       6.615666009855e+00 
       5.134464288873e+00       4.667511149487e+00 
       6.463907569212e+00       3.199445877007e+00 
       8.137577498370e+00       2.127762648047e+00 
       1.024460310314e+01       1.374034716523e+00 
