# Matter power spectrum P(k) at redshift z=1.5
# for k=2.18739e-07 to 10.9743 h/Mpc,
# number of wavenumbers equal to 139
#    1:k (h/Mpc)              2:P (Mpc/h)^3        
       2.187394691279e-07       1.532144678121e-01 
       2.753766762475e-07       1.917651907159e-01 
       3.466786955433e-07       2.400157692803e-01 
       4.364426195472e-07       3.004068113906e-01 
       5.494487045379e-07       3.759930129983e-01 
       6.917149366202e-07       4.705976704809e-01 
       8.708175114287e-07       5.890060701561e-01 
       1.096294294173e-06       7.372075368840e-01 
       1.380152745739e-06       9.226983846206e-01 
       1.737509363769e-06       1.154861093150e+00 
       2.187394691279e-06       1.445438887739e+00 
       2.753766762475e-06       1.809129726887e+00 
       3.466786955433e-06       2.264329738691e+00 
       4.364426195472e-06       2.834063703398e+00 
       5.494487045379e-06       3.547149632255e+00 
       6.917149366202e-06       4.439656321602e+00 
       8.708175114287e-06       5.556727552089e+00 
       1.096294294173e-05       6.954865087498e+00 
       1.380152745739e-05       8.704785735880e+00 
       1.737509363769e-05       1.089499653134e+01 
       2.187394691279e-05       1.363626801326e+01 
       2.753766762475e-05       1.706723010157e+01 
       3.466786955433e-05       2.136137017722e+01 
       4.364426195472e-05       2.673578046175e+01 
       5.494487045379e-05       3.346208359594e+01 
       6.917149366202e-05       4.188006211956e+01 
       8.708175114287e-05       5.241462826283e+01 
       1.096294294173e-04       6.559688772287e+01 
       1.380152745739e-04       8.209015777992e+01 
       1.737509363769e-04       1.027218557491e+02 
       2.187394691279e-04       1.285220990735e+02 
       2.753766762475e-04       1.607695046686e+02 
       3.466786955433e-04       2.010437958399e+02 
       4.364426195472e-04       2.512830766077e+02 
       5.494487045379e-04       3.138407192255e+02 
       6.917149366202e-04       3.915329427160e+02 
       8.708175114287e-04       4.876647133912e+02 
       1.096294294173e-03       6.060198890564e+02 
       1.380152745739e-03       7.507941213790e+02 
       1.737509363769e-03       9.264105754484e+02 
       2.187394691279e-03       1.137104084073e+03 
       2.753766762475e-03       1.386222341668e+03 
       3.466786955433e-03       1.675241609958e+03 
       4.364426195472e-03       2.002413913797e+03 
       5.494487045379e-03       2.361025369161e+03 
       6.917149366202e-03       2.737370291416e+03 
       8.708175114287e-03       3.108701876193e+03 
       1.096294294173e-02       3.441402444356e+03 
       1.380152745739e-02       3.690328872494e+03 
       1.737509363766e-02       3.801489281609e+03 
       2.187394675207e-02       3.722829474665e+03 
       2.753754271665e-02       3.429802242049e+03 
       3.465028600217e-02       2.965428691039e+03 
       4.305014633583e-02       2.482487434064e+03 
       5.016863753347e-02       2.187759426193e+03 
       5.532476408689e-02       2.031191941011e+03 
       5.957083225558e-02       1.925740407690e+03 
       6.335918237481e-02       1.841385777697e+03 
       6.689095106365e-02       1.765779316867e+03 
       7.027238443399e-02       1.692928084427e+03 
       7.356709722135e-02       1.619824940122e+03 
       7.681683062185e-02       1.545186497495e+03 
       8.005097722970e-02       1.468868013170e+03 
       8.329145063115e-02       1.391519537730e+03 
       8.655538868758e-02       1.314328075352e+03 
       8.985675410244e-02       1.238789245554e+03 
       9.320733226186e-02       1.166491935417e+03 
       9.661738002132e-02       1.098918469750e+03 
       1.000960624002e-01       1.037269389157e+03 
       1.036517550528e-01       9.823232590562e+02 
       1.072922587635e-01       9.343395275220e+02 
       1.110249544817e-01       8.930094251040e+02 
       1.148569170667e-01       8.574599310881e+02 
       1.187949996720e-01       8.263181423210e+02 
       1.228458968134e-01       7.978453573294e+02 
       1.270161917042e-01       7.701474932196e+02 
       1.313123918344e-01       7.414535973878e+02 
       1.357409557215e-01       7.104278515472e+02 
       1.403083130583e-01       6.764486557422e+02 
       1.450208800200e-01       6.397703606273e+02 
       1.498850711802e-01       6.014943347853e+02 
       1.549073092846e-01       5.633254439921e+02 
       1.600940339980e-01       5.271601746671e+02 
       1.654517106533e-01       4.946132696575e+02 
       1.709868399842e-01       4.666101306714e+02 
       1.767059697838e-01       4.431497054357e+02 
       1.826157094160e-01       4.233002743569e+02 
       1.887227480888e-01       4.054499575978e+02 
       1.950338777913e-01       3.877858473832e+02 
       2.015560217916e-01       3.688929999439e+02 
       2.082962695943e-01       3.482627596359e+02 
       2.152619192728e-01       3.264640902318e+02 
       2.224605281220e-01       3.048503918803e+02 
       2.298999726420e-01       2.849143657195e+02 
       2.375885189613e-01       2.676023759560e+02 
       2.455349049660e-01       2.529161634257e+02 
       2.537484356265e-01       2.399813449840e+02 
       2.622390933326e-01       2.275518987947e+02 
       2.710176654900e-01       2.147058016422e+02 
       2.800958922178e-01       2.013334402695e+02 
       2.894866377797e-01       1.880904907998e+02 
       2.992040904234e-01       1.758450893841e+02 
       3.092639966848e-01       1.650340866738e+02 
       3.196839380412e-01       1.554013045182e+02 
       3.304836602344e-01       1.462844628834e+02 
       3.416854688540e-01       1.371918547627e+02 
       3.533147092048e-01       1.281651344868e+02 
       3.654003545636e-01       1.196105178335e+02 
       3.779757353897e-01       1.118084600304e+02 
       3.910794539803e-01       1.046349248774e+02 
       4.047565461542e-01       9.776418879653e+01 
       4.190599764648e-01       9.106206773539e+01 
       4.340525904353e-01       8.466887943618e+01 
       4.498097033568e-01       7.871128350606e+01 
       4.664225920111e-01       7.310202670530e+01 
       4.840032934706e-01       6.770501431169e+01 
       5.026913398387e-01       6.253248277052e+01 
       5.226634354552e-01       5.763390389593e+01 
       5.441477396925e-01       5.295296035328e+01 
       5.674456044849e-01       4.843898327001e+01 
       5.929658527899e-01       4.409947210296e+01 
       6.212811165610e-01       3.989849109042e+01 
       6.532250399630e-01       3.579933669326e+01 
       6.900698782100e-01       3.177112133002e+01 
       7.338735634378e-01       2.776205605147e+01 
       7.882120177634e-01       2.371041563921e+01 
       8.598491584745e-01       1.953236683551e+01 
       9.626841225573e-01       1.514327087101e+01 
       1.125133304094e+00       1.060701302960e+01 
       1.384014954898e+00       6.558032688021e+00 
       1.739350131472e+00       3.820901325026e+00 
       2.189653606157e+00       2.196914797717e+00 
       2.756610345396e+00       1.252591324832e+00 
       3.470366814114e+00       7.088094821327e-01 
       4.368932970535e+00       3.983605186543e-01 
       5.500160739032e+00       2.224932341312e-01 
       6.924292123320e+00       1.235625069954e-01 
       8.717167312734e+00       6.826425951688e-02 
       1.097426344886e+01       3.753354041361e-02 
