# Matter power spectrum P(k) at redshift z=1
# for k=1.97659e-07 to 12.4888 h/Mpc,
# number of wavenumbers equal to 140
#    1:k (h/Mpc)              2:P (Mpc/h)^3        
       1.976586698218e-07       7.133815409359e-01 
       2.488375223001e-07       8.842842036957e-01 
       3.132678802315e-07       1.096129500960e+00 
       3.943808951223e-07       1.358725935347e+00 
       4.964961307956e-07       1.684231802195e+00 
       6.250515959161e-07       2.087718120977e+00 
       7.868933377813e-07       2.587866427293e+00 
       9.906400193044e-07       3.207833729682e+00 
       1.247141894243e-06       3.976324679134e+00 
       1.570058622775e-06       4.928920590930e+00 
       1.976586698218e-06       6.109726842373e+00 
       2.488375223001e-06       7.573414913852e+00 
       3.132678802315e-06       9.387753590189e+00 
       3.943808951223e-06       1.163674647562e+01 
       4.964961307956e-06       1.442452098347e+01 
       6.250515959161e-06       1.788014868178e+01 
       7.868933377813e-06       2.216361980618e+01 
       9.906400193044e-06       2.747324781441e+01 
       1.247141894243e-05       3.405484540113e+01 
       1.570058622775e-05       4.221309399142e+01 
       1.976586698218e-05       5.232562756450e+01 
       2.488375223001e-05       6.486047203944e+01 
       3.132678802315e-05       8.039762627624e+01 
       3.943808951223e-05       9.965574200856e+01 
       4.964961307956e-05       1.235250558295e+02 
       6.250515959161e-05       1.531079373359e+02 
       7.868933377813e-05       1.897686168354e+02 
       9.906400193044e-05       2.351937845782e+02 
       1.247141894243e-04       2.914656860208e+02 
       1.570058622775e-04       3.611488335769e+02 
       1.976586698218e-04       4.473900730490e+02 
       2.488375223001e-04       5.540287472731e+02 
       3.132678802315e-04       6.857080431027e+02 
       3.943808951223e-04       8.479692965092e+02 
       4.964961307956e-04       1.047298508119e+03 
       6.250515959161e-04       1.291083261574e+03 
       7.868933377813e-04       1.587437939828e+03 
       9.906400193044e-04       1.944860623781e+03 
       1.247141894243e-03       2.371627101005e+03 
       1.570058622775e-03       2.874639876527e+03 
       1.976586698218e-03       3.457493680445e+03 
       2.488375223001e-03       4.117999162612e+03 
       3.132678802315e-03       4.845226857888e+03 
       3.943808951223e-03       5.616527114651e+03 
       4.964961307956e-03       6.394687747469e+03 
       6.250515959161e-03       7.126328305341e+03 
       7.868933377813e-03       7.738419002991e+03 
       9.906400193044e-03       8.155721605598e+03 
       1.247141894243e-02       8.285664417141e+03 
       1.570058622775e-02       8.042743976641e+03 
       1.976586697967e-02       7.369434056323e+03 
       2.488374685758e-02       6.282495975794e+03 
       3.132505652443e-02       4.936303629610e+03 
       3.931938220040e-02       3.653623303416e+03 
       4.764203315219e-02       2.842759675042e+03 
       5.372695789658e-02       2.500167855963e+03 
       5.842693519157e-02       2.320241161856e+03 
       6.247851779129e-02       2.194573835100e+03 
       6.618319717874e-02       2.087466890813e+03 
       6.968767968391e-02       1.984132991727e+03 
       7.307481306409e-02       1.878130643845e+03 
       7.639665284054e-02       1.767321618001e+03 
       7.968863317168e-02       1.652163351373e+03 
       8.297645012642e-02       1.534750892580e+03 
       8.627973568019e-02       1.418122050589e+03 
       8.961416677379e-02       1.305675962604e+03 
       9.299274783501e-02       1.200676132260e+03 
       9.642662785939e-02       1.105852295060e+03 
       9.992564122057e-02       1.023119577521e+03 
       1.034986770899e-01       9.534196138163e+02 
       1.071539384388e-01       8.966690060422e+02 
       1.108991275338e-01       8.517885830858e+02 
       1.147415810658e-01       8.167924373781e+02 
       1.186883698789e-01       7.889367239221e+02 
       1.227463732591e-01       7.649544939153e+02 
       1.269223345939e-01       7.414120008093e+02 
       1.312229031869e-01       7.151953999980e+02 
       1.356546656942e-01       6.840693534333e+02 
       1.402241697693e-01       6.471674672390e+02 
       1.449379419242e-01       6.052292593585e+02 
       1.498025012257e-01       5.604411137694e+02 
       1.548243701892e-01       5.158745121132e+02 
       1.600100840639e-01       4.746816151384e+02 
       1.653661995977e-01       4.393052147626e+02 
       1.708993042981e-01       4.109269320500e+02 
       1.766160271669e-01       3.892549475684e+02 
       1.825230518562e-01       3.726479372986e+02 
       1.886271331804e-01       3.585500615286e+02 
       1.949351179007e-01       3.442118983934e+02 
       2.014539706991e-01       3.275755238864e+02 
       2.081908062512e-01       3.080088095214e+02 
       2.151529283177e-01       2.864873593086e+02 
       2.223478767987e-01       2.650481475700e+02 
       2.297834837375e-01       2.457783971727e+02 
       2.374679393465e-01       2.298790402378e+02 
       2.454098692510e-01       2.172353528158e+02 
       2.536184243411e-01       2.066196377054e+02 
       2.621033848930e-01       1.964000241817e+02 
       2.708752810046e-01       1.854314558041e+02 
       2.799455319053e-01       1.736328096555e+02 
       2.893266073933e-01       1.618541549652e+02 
       2.990322155774e-01       1.511403016482e+02 
       3.090775223120e-01       1.419710346348e+02 
       3.194794093301e-01       1.340207429096e+02 
       3.302567802124e-01       1.265386953273e+02 
       3.414309261911e-01       1.189976106216e+02 
       3.530259676374e-01       1.114567908193e+02 
       3.650693923411e-01       1.043432582866e+02 
       3.775927189402e-01       9.793451129028e+01 
       3.906323240206e-01       9.210237719972e+01 
       4.042304858388e-01       8.653416514307e+01 
       4.184367184785e-01       8.110428180946e+01 
       4.333095009244e-01       7.593614127459e+01 
       4.489185515209e-01       7.113915133431e+01 
       4.653478686985e-01       6.664062194014e+01 
       4.826998691977e-01       6.232588450265e+01 
       5.011011324409e-01       5.819751005153e+01 
       5.207105532248e-01       5.429229633657e+01 
       5.417312062423e-01       5.057026548275e+01 
       5.644281135448e-01       4.698819882814e+01 
       5.891557426431e-01       4.354550475380e+01 
       6.164022228390e-01       4.021789984521e+01 
       6.468636968406e-01       3.697268231958e+01 
       6.815761074311e-01       3.378450749335e+01 
       7.221637465224e-01       3.061090976764e+01 
       7.713431210343e-01       2.740127487128e+01 
       8.340286819758e-01       2.408258827946e+01 
       9.199278983727e-01       2.055483855404e+01 
       1.049398905113e+00       1.671776494441e+01 
       1.259243056351e+00       1.270083068777e+01 
       1.572675613687e+00       9.225617597149e+00 
       1.979346002851e+00       6.714708401008e+00 
       2.491844173171e+00       4.918727026112e+00 
       3.137045944491e+00       3.601229738429e+00 
       3.949306857484e+00       2.616037932888e+00 
       4.971882761860e+00       1.872913675137e+00 
       6.259229553367e+00       1.314193272817e+00 
       7.879903142987e+00       9.002571698766e-01 
       9.920210309183e+00       6.008437061185e-01 
       1.248880484857e+01       3.905960806558e-01 
