# Matter power spectrum P(k) at redshift z=2.5
# for k=2.02091e-07 to 10.1395 h/Mpc,
# number of wavenumbers equal to 139
#    1:k (h/Mpc)              2:P (Mpc/h)^3        
       2.020911109706e-07       2.263251825385e-01 
       2.544176350986e-07       2.814769775501e-01 
       3.202928260342e-07       3.500683748736e-01 
       4.032247779098e-07       4.353743886444e-01 
       5.076299195757e-07       5.414681006275e-01 
       6.390682055408e-07       6.734151372419e-01 
       8.045392038250e-07       8.375155351646e-01 
       1.012854848480e-06       1.041604546955e+00 
       1.275108707210e-06       1.295426747225e+00 
       1.605266754307e-06       1.611101302045e+00 
       2.020911109706e-06       2.003700612490e+00 
       2.544176350986e-06       2.491969960459e+00 
       3.202928260342e-06       3.099222513709e+00 
       4.032247779098e-06       3.854452407965e+00 
       5.076299195757e-06       4.793719033711e+00 
       6.390682055408e-06       5.961868581496e+00 
       8.045392038250e-06       7.414674964895e+00 
       1.012854848480e-05       9.221502166312e+00 
       1.275108707210e-05       1.146861482475e+01 
       1.605266754307e-05       1.426329448836e+01 
       2.020911109706e-05       1.773895683733e+01 
       2.544176350986e-05       2.206151174310e+01 
       3.202928260342e-05       2.743726502547e+01 
       4.032247779098e-05       3.412272967890e+01 
       5.076299195757e-05       4.243679634766e+01 
       6.390682055408e-05       5.277580726378e+01 
       8.045392038250e-05       6.563218132131e+01 
       1.012854848480e-04       8.161733784321e+01 
       1.275108707210e-04       1.014897371663e+02 
       1.605266754307e-04       1.261888399039e+02 
       2.020911109706e-04       1.568755721623e+02 
       2.544176350986e-04       1.949792645843e+02 
       3.202928260342e-04       2.422496586677e+02 
       4.032247779098e-04       3.008099275811e+02 
       5.076299195757e-04       3.732022116265e+02 
       6.390682055408e-04       4.624110005761e+02 
       8.045392038250e-04       5.718439304959e+02 
       1.012854848480e-03       7.052491986659e+02 
       1.275108707210e-03       8.665541866035e+02 
       1.605266754307e-03       1.059590535122e+03 
       2.020911109706e-03       1.287578339096e+03 
       2.544176350986e-03       1.552227945119e+03 
       3.202928260342e-03       1.852604120694e+03 
       4.032247779098e-03       2.183790086203e+03 
       5.076299195757e-03       2.535353544751e+03 
       6.390682055408e-03       2.888480556681e+03 
       8.045392038250e-03       3.220483637949e+03 
       1.012854848480e-02       3.497384865368e+03 
       1.275108707210e-02       3.679974474612e+03 
       1.605266754306e-02       3.727105911037e+03 
       2.020911100804e-02       3.605429709860e+03 
       2.544168470082e-02       3.307368484868e+03 
       3.201694751664e-02       2.874585747543e+03 
       3.986443529315e-02       2.421163465430e+03 
       4.670451177309e-02       2.118374164115e+03 
       5.163032283788e-02       1.943945774974e+03 
       5.565608116266e-02       1.819278643214e+03 
       5.923351838794e-02       1.716925256999e+03 
       6.256095386844e-02       1.626130017587e+03 
       6.574208115307e-02       1.541977821379e+03 
       6.883853546104e-02       1.462133750731e+03 
       7.189053848515e-02       1.385601558935e+03 
       7.492629058243e-02       1.312140970121e+03 
       7.796674163349e-02       1.241939504404e+03 
       8.102822636274e-02       1.175394876929e+03 
       8.412401852688e-02       1.112955304592e+03 
       8.726529675958e-02       1.054997430150e+03 
       9.046177091635e-02       1.001734603592e+03 
       9.372210275450e-02       9.531553811194e+02 
       9.705419679302e-02       9.089933943649e+02 
       1.004654062728e-01       8.687300829388e+02 
       1.039626818487e-01       8.316322103248e+02 
       1.075526805849e-01       7.968238609213e+02 
       1.112418467614e-01       7.633896268577e+02 
       1.150364722466e-01       7.304983940460e+02 
       1.189427417991e-01       6.975298977406e+02 
       1.229667671181e-01       6.641780781200e+02 
       1.271146124432e-01       6.305028890839e+02 
       1.313923138316e-01       5.969089483171e+02 
       1.358058937880e-01       5.640453478580e+02 
       1.403613726273e-01       5.326441491956e+02 
       1.450647777509e-01       5.033342526351e+02 
       1.499221518900e-01       4.764788770533e+02 
       1.549395612878e-01       4.520807757528e+02 
       1.601231047429e-01       4.297848431639e+02 
       1.654789244005e-01       4.089835628411e+02 
       1.710132191622e-01       3.890026311402e+02 
       1.767322615691e-01       3.693128099232e+02 
       1.826424190045e-01       3.496931886837e+02 
       1.887501800578e-01       3.302765164088e+02 
       1.950621868946e-01       3.114509724677e+02 
       2.015852744875e-01       2.936589262169e+02 
       2.083265175958e-01       2.771860495097e+02 
       2.152932864349e-01       2.620403064829e+02 
       2.224933120690e-01       2.479749979076e+02 
       2.299347627038e-01       2.346372323669e+02 
       2.376263322616e-01       2.217560752321e+02 
       2.455773429163e-01       2.092614405725e+02 
       2.537978636679e-01       1.972667627892e+02 
       2.622988475813e-01       1.859395505584e+02 
       2.710922910393e-01       1.753598373118e+02 
       2.801914193230e-01       1.654669884547e+02 
       2.896109041021e-01       1.561197616975e+02 
       2.993671201027e-01       1.472049308744e+02 
       3.094784504622e-01       1.386981320640e+02 
       3.199656532844e-01       1.306345800863e+02 
       3.308523059870e-01       1.230351366054e+02 
       3.421653496141e-01       1.158679459315e+02 
       3.539357630461e-01       1.090749677898e+02 
       3.661994079685e-01       1.026184413960e+02 
       3.789981011098e-01       9.649009322843e+01 
       3.923809930320e-01       9.068323196139e+01 
       4.064063665371e-01       8.517398875968e+01 
       4.211440188543e-01       7.993336925046e+01 
       4.366784707961e-01       7.494248977430e+01 
       4.531133712913e-01       7.018696935843e+01 
       4.705776694942e-01       6.564691883489e+01 
       4.892344684429e-01       6.130050484240e+01 
       5.092940669971e-01       5.712828434854e+01 
       5.310337645247e-01       5.310920528032e+01 
       5.548290104806e-01       4.921915168025e+01 
       5.812044447596e-01       4.543176668324e+01 
       6.109216464258e-01       4.171566338552e+01 
       6.451387839776e-01       3.803251599466e+01 
       6.857210760057e-01       3.433186426018e+01 
       7.358923095227e-01       3.054450586971e+01 
       8.017134334311e-01       2.657100030485e+01 
       8.955818376211e-01       2.228102164596e+01 
       1.043042875781e+00       1.762049062827e+01 
       1.279325558899e+00       1.304387663658e+01 
       1.607064091838e+00       9.472644648863e+00 
       2.023098387776e+00       6.942235784285e+00 
       2.546929647395e+00       5.115408192257e+00 
       3.206394454956e+00       3.761946706777e+00 
       4.036611459579e+00       2.741069175890e+00 
       5.081792744004e+00       1.965829016284e+00 
       6.397598022898e+00       1.380333342070e+00 
       8.054098725470e+00       9.454666470413e-01 
       1.013950955459e+01       6.305193891289e-01 
