# Matter power spectrum P(k) at redshift z=0.5
# for k=2.29539e-07 to 11.5169 h/Mpc,
# number of wavenumbers equal to 139
#    1:k (h/Mpc)              2:P (Mpc/h)^3        
       2.295386263736e-07       4.978675329796e-01 
       2.889720097300e-07       6.202171995664e-01 
       3.637942063464e-07       7.726339820399e-01 
       4.579897710330e-07       9.625067966717e-01 
       5.765749610952e-07       1.199040366595e+00 
       7.258648703270e-07       1.493701451588e+00 
       9.138097307833e-07       1.860774737190e+00 
       1.150418291628e-06       2.318055331877e+00 
       1.448290821523e-06       2.887711442669e+00 
       1.823290118884e-06       3.597359049148e+00 
       2.295386263736e-06       4.481400673013e+00 
       2.889720097300e-06       5.582693138794e+00 
       3.637942063464e-06       6.954625170109e+00 
       4.579897710330e-06       8.663705522951e+00 
       5.765749610952e-06       1.079278709261e+01 
       7.258648703270e-06       1.344508323313e+01 
       9.138097307833e-06       1.674917087255e+01 
       1.150418291628e-05       2.086522272374e+01 
       1.448290821523e-05       2.599277024490e+01 
       1.823290118884e-05       3.238037274916e+01 
       2.295386263736e-05       4.033765955517e+01 
       2.889720097300e-05       5.025032530592e+01 
       3.637942063464e-05       6.259879821716e+01 
       4.579897710330e-05       7.798147204701e+01 
       5.765749610952e-05       9.714360008244e+01 
       7.258648703270e-05       1.210131968746e+02 
       9.138097307833e-05       1.507455801733e+02 
       1.150418291628e-04       1.877785012410e+02 
       1.448290821523e-04       2.339001252367e+02 
       1.823290118884e-04       2.913323647922e+02 
       2.295386263736e-04       3.628320988162e+02 
       2.889720097300e-04       4.518123758750e+02 
       3.637942063464e-04       5.624844243917e+02 
       4.579897710330e-04       7.000187261268e+02 
       5.765749610952e-04       8.707193545676e+02 
       7.258648703270e-04       1.082200728395e+03 
       9.138097307833e-04       1.343550009621e+03 
       1.150418291628e-03       1.665444184349e+03 
       1.448290821523e-03       2.060145056552e+03 
       1.823290118884e-03       2.541222732356e+03 
       2.295386263736e-03       3.122848853526e+03 
       2.889720097300e-03       3.818497073008e+03 
       3.637942063464e-03       4.638746538164e+03 
       4.579897710330e-03       5.587953998013e+03 
       5.765749610952e-03       6.635985867207e+03 
       7.258648703270e-03       7.793707111489e+03 
       9.138097307833e-03       8.993386238781e+03 
       1.150418291628e-02       1.014640668522e+04 
       1.448290821523e-02       1.111909993324e+04 
       1.823290118862e-02       1.173324726540e+04 
       2.295386181321e-02       1.179390901874e+04 
       2.889677530148e-02       1.117242746039e+04 
       3.633646376574e-02       9.955643089782e+03 
       4.473233385621e-02       8.646058828440e+03 
       5.129040743909e-02       7.867402207743e+03 
       5.616755052521e-02       7.426224471586e+03 
       6.027506403072e-02       7.120564429485e+03 
       6.398377916806e-02       6.875523290896e+03 
       6.746557720770e-02       6.656751525985e+03 
       7.081415905345e-02       6.445713930188e+03 
       7.408691206613e-02       6.231813006215e+03 
       7.732214114661e-02       6.009373208226e+03 
       8.054718913004e-02       5.776283427729e+03 
       8.378267272118e-02       5.533237119454e+03 
       8.704487097638e-02       5.283156600133e+03 
       9.034715711549e-02       5.030628293696e+03 
       9.370090016286e-02       4.781286483030e+03 
       9.711605603923e-02       4.541147175903e+03 
       1.006015681431e-01       4.315927861790e+03 
       1.041656463740e-01       4.110406510260e+03 
       1.078159659102e-01       3.927871270308e+03 
       1.115598114088e-01       3.769702590427e+03 
       1.154041830977e-01       3.635117470015e+03 
       1.193558756342e-01       3.521104118818e+03 
       1.234215371148e-01       3.422586832555e+03 
       1.276077133877e-01       3.332876739016e+03 
       1.319208813624e-01       3.244460579092e+03 
       1.363674740584e-01       3.150127656370e+03 
       1.409538994900e-01       3.044316166365e+03 
       1.456865550673e-01       2.924400662233e+03 
       1.505718389044e-01       2.791519491727e+03 
       1.556161592481e-01       2.650559611940e+03 
       1.608259431147e-01       2.509135167945e+03 
       1.662076451498e-01       2.375749206572e+03 
       1.717677576794e-01       2.257638268267e+03 
       1.775128228875e-01       2.158896530071e+03 
       1.834494480411e-01       2.079350399611e+03 
       1.895843246659e-01       2.014460762993e+03 
       1.959242525720e-01       1.956404263003e+03 
       2.024761696226e-01       1.896339881539e+03 
       2.092471881452e-01       1.827454316097e+03 
       2.162446389029e-01       1.747698204191e+03 
       2.234761235798e-01       1.660739214878e+03 
       2.309495768064e-01       1.574285337056e+03 
       2.386733388603e-01       1.496436426129e+03 
       2.466562403480e-01       1.431920160641e+03 
       2.549077004164e-01       1.380025007892e+03 
       2.634378403875e-01       1.335132642852e+03 
       2.722576151771e-01       1.289752286954e+03 
       2.813789654861e-01       1.238806236571e+03 
       2.908149945932e-01       1.182642554419e+03 
       3.005801746829e-01       1.126397807204e+03 
       3.106905891102e-01       1.075958878133e+03 
       3.211642189427e-01       1.033636163879e+03 
       3.320212847152e-01       9.967887611784e+02 
       3.432846578128e-01       9.603428362681e+02 
       3.549803606386e-01       9.212515099219e+02 
       3.671381812383e-01       8.809440668183e+02 
       3.797924371434e-01       8.432446060441e+02 
       3.929829360582e-01       8.100316634578e+02 
       4.067561995197e-01       7.794602117448e+02 
       4.211670427305e-01       7.485949824293e+02 
       4.362806441435e-01       7.170917422058e+02 
       4.521752998362e-01       6.870246932063e+02 
       4.689461534072e-01       6.593273292873e+02 
       4.867103448918e-01       6.325130727316e+02 
       5.056142729030e-01       6.055140473901e+02 
       5.258440886029e-01       5.792364060401e+02 
       5.476412839323e-01       5.540472003000e+02 
       5.713265923938e-01       5.289553258730e+02 
       5.973380047430e-01       5.039307812725e+02 
       6.262938825097e-01       4.791127428813e+02 
       6.591031529096e-01       4.538376736092e+02 
       6.971694840615e-01       4.279262723055e+02 
       7.427968305565e-01       4.006732928101e+02 
       8.000604576192e-01       3.712083669864e+02 
       8.768223445374e-01       3.379915156775e+02 
       9.894410712587e-01       2.985985383215e+02 
       1.170083561028e+00       2.505023263870e+02 
       1.451043176514e+00       1.972389520274e+02 
       1.825321555469e+00       1.486914094285e+02 
       2.297923968947e+00       1.077983076668e+02 
       2.892914828629e+00       7.494888791182e+01 
       3.641963991901e+00       5.012412039655e+01 
       4.584961018243e+00       3.245448755669e+01 
       5.772123937952e+00       2.048560691974e+01 
       7.266673505513e+00       1.268292197546e+01 
       9.148199935302e+00       7.740063284462e+00 
       1.151690137073e+01       4.674063244296e+00 
