# Matter power spectrum P(k) at redshift z=2.5
# for k=1.5759e-07 to 12.5306 h/Mpc,
# number of wavenumbers equal to 141
#    1:k (h/Mpc)              2:P (Mpc/h)^3        
       1.575898001593e-07       4.336406513301e-01 
       1.983938040601e-07       5.404306698618e-01 
       2.497630014738e-07       6.735192098174e-01 
       3.144329894814e-07       8.393826462400e-01 
       3.958476807645e-07       1.046092250836e+00 
       4.983427045142e-07       1.303706956977e+00 
       6.273762944952e-07       1.624762848505e+00 
       7.898199598972e-07       2.024883190955e+00 
       9.943244182569e-07       2.523538690156e+00 
       1.251780277711e-06       3.144994972466e+00 
       1.575898001593e-06       3.919493390187e+00 
       1.983938040601e-06       4.884722606640e+00 
       2.497630014738e-06       6.087652559000e+00 
       3.144329894814e-06       7.586820024830e+00 
       3.958476807645e-06       9.455176955164e+00 
       4.983427045142e-06       1.178364010687e+01 
       6.273762944952e-06       1.468551451529e+01 
       7.898199598972e-06       1.830200571192e+01 
       9.943244182569e-06       2.280908824093e+01 
       1.251780277711e-05       2.842606330835e+01 
       1.575898001593e-05       3.542621932641e+01 
       1.983938040601e-05       4.415010868707e+01 
       2.497630014738e-05       5.502207635948e+01 
       3.144329894814e-05       6.857082366024e+01 
       3.958476807645e-05       8.545496672685e+01 
       4.983427045142e-05       1.064947523380e+02 
       6.273762944952e-05       1.327113149120e+02 
       7.898199598972e-05       1.653750717469e+02 
       9.943244182569e-05       2.060649995939e+02 
       1.251780277711e-04       2.567404876043e+02 
       1.575898001593e-04       3.198269742777e+02 
       1.983938040601e-04       3.983151993247e+02 
       2.497630014738e-04       4.958708854930e+02 
       3.144329894814e-04       6.169459673257e+02 
       3.958476807645e-04       7.668731797466e+02 
       4.983427045142e-04       9.519136548021e+02 
       6.273762944952e-04       1.179217432789e+03 
       7.898199598972e-04       1.456658870291e+03 
       9.943244182569e-04       1.792513178431e+03 
       1.251780277711e-03       2.194864125929e+03 
       1.575898001593e-03       2.670419746149e+03 
       1.983938040601e-03       3.222519930382e+03 
       2.497630014738e-03       3.848718586314e+03 
       3.144329894814e-03       4.537708660630e+03 
       3.958476807645e-03       5.265336059391e+03 
       4.983427045142e-03       5.990623590738e+03 
       6.273762944952e-03       6.651655402886e+03 
       7.898199598972e-03       7.162459209367e+03 
       9.943244182569e-03       7.413192437043e+03 
       1.251780277709e-02       7.281016628578e+03 
       1.575897988713e-02       6.666944061752e+03 
       1.983928298942e-02       5.576027252409e+03 
       2.496288698846e-02       4.222681297205e+03 
       3.099903216498e-02       3.074140586322e+03 
       3.608477296443e-02       2.523704535079e+03 
       3.977369387210e-02       2.301542451750e+03 
       4.281625562827e-02       2.188131451023e+03 
       4.553307150143e-02       2.115029701890e+03 
       4.806709051990e-02       2.054244533540e+03 
       5.049398293120e-02       1.991617855406e+03 
       5.285912504013e-02       1.919523075410e+03 
       5.519232478540e-02       1.834367247748e+03 
       5.751459079609e-02       1.735535754561e+03 
       5.984159770718e-02       1.624764057065e+03 
       6.218561187834e-02       1.505580672341e+03 
       6.455663251809e-02       1.382702973192e+03 
       6.696310356839e-02       1.261379030557e+03 
       6.941237681835e-02       1.146731602231e+03 
       7.191102376424e-02       1.043183993998e+03 
       7.446505169605e-02       9.540359419801e+02 
       7.708005698034e-02       8.812227983594e+02 
       7.976133587845e-02       8.252399205184e+02 
       8.251396586657e-02       7.851735646983e+02 
       8.534286597183e-02       7.587775233846e+02 
       8.825284187177e-02       7.425763896388e+02 
       9.124861974388e-02       7.320520083867e+02 
       9.433487170908e-02       7.220285219460e+02 
       9.751623496151e-02       7.073585518613e+02 
       1.007973261777e-01       6.838892087032e+02 
       1.041827524658e-01       6.494885776364e+02 
       1.076771198936e-01       6.047468677294e+02 
       1.112850404912e-01       5.529751469867e+02 
       1.150111385255e-01       4.993684391281e+02 
       1.188600567891e-01       4.495819798388e+02 
       1.228364636031e-01       4.082481907026e+02 
       1.269450612140e-01       3.779266258108e+02 
       1.311905962473e-01       3.586668844445e+02 
       1.355778728732e-01       3.480753157088e+02 
       1.401117693290e-01       3.417993427665e+02 
       1.447972584445e-01       3.345677227147e+02 
       1.496394328152e-01       3.218765070057e+02 
       1.546435352799e-01       3.018314923833e+02 
       1.598149953838e-01       2.760637705125e+02 
       1.651594725520e-01       2.488995740736e+02 
       1.706829067716e-01       2.251557659116e+02 
       1.763915776937e-01       2.079045742004e+02 
       1.822921732277e-01       1.973199355279e+02 
       1.883918689356e-01       1.908325352498e+02 
       1.946984198443e-01       1.844343234861e+02 
       2.012202667269e-01       1.748520981666e+02 
       2.079666594673e-01       1.615365080454e+02 
       2.149478008787e-01       1.468472186025e+02 
       2.221750153416e-01       1.340873107958e+02 
       2.296609479430e-01       1.250518152005e+02 
       2.374198015583e-01       1.189600297401e+02 
       2.454676216728e-01       1.133204036240e+02 
       2.538226419383e-01       1.060952717721e+02 
       2.625057078493e-01       9.744579281676e+01 
       2.715408020220e-01       8.925602313382e+01 
       2.809557031730e-01       8.294595039898e+01 
       2.907828232282e-01       7.805692799322e+01 
       3.010602849871e-01       7.305373218197e+01 
       3.118333294832e-01       6.731229354212e+01 
       3.231561826764e-01       6.172770328089e+01 
       3.350945738589e-01       5.713443157144e+01 
       3.477291977771e-01       5.306431959035e+01 
       3.611605750007e-01       4.876267072624e+01 
       3.755160383505e-01       4.451779912332e+01 
       3.909600485685e-01       4.079773066878e+01 
       4.077099015765e-01       3.722367441800e+01 
       4.260605112928e-01       3.363596296087e+01 
       4.464251674046e-01       3.031603202012e+01 
       4.694059105326e-01       2.705046738395e+01 
       4.959222289736e-01       2.386792714395e+01 
       5.274628218192e-01       2.072105775485e+01 
       5.666174334697e-01       1.757116622016e+01 
       6.182908914073e-01       1.434719108034e+01 
       6.925714951679e-01       1.099773031651e+01 
       8.100458135491e-01       7.587590279253e+00 
       9.970155666362e-01       4.607284356401e+00 
       1.253096155462e+00       2.638452558889e+00 
       1.577515367003e+00       1.493040553602e+00 
       1.985974037567e+00       8.387090556722e-01 
       2.500193182981e+00       4.680420329584e-01 
       3.147556732449e+00       2.596264836564e-01 
       3.962539155544e+00       1.432296198920e-01 
       4.988541238144e+00       7.862089864041e-02 
       6.280201332482e+00       4.295772865249e-02 
       7.906305048646e+00       2.337195136326e-02 
       9.953448339137e+00       1.266565755026e-02 
       1.253064904912e+01       6.838223933528e-03 
