# Matter power spectrum P(k) at redshift z=0
# for k=2.23154e-07 to 11.1956 h/Mpc,
# number of wavenumbers equal to 139
#    1:k (h/Mpc)              2:P (Mpc/h)^3        
       2.231541636368e-07       8.832347535809e-01 
       2.809344473501e-07       1.102265333779e+00 
       3.536755148174e-07       1.375612611042e+00 
       4.452510931330e-07       1.716746409918e+00 
       5.605379157742e-07       2.142476893097e+00 
       7.056754264423e-07       2.673782920882e+00 
       8.883927268269e-07       3.336845831764e+00 
       1.118420179455e-06       4.164339585787e+00 
       1.408007584980e-06       5.197040843908e+00 
       1.772576528730e-06       6.485838321187e+00 
       2.231541636368e-06       8.094240421636e+00 
       2.809344473501e-06       1.010150471490e+01 
       3.536755148174e-06       1.260654344157e+01 
       4.452510931330e-06       1.573279745448e+01 
       5.605379157742e-06       1.963431867751e+01 
       7.056754264423e-06       2.450336062913e+01 
       8.883927268269e-06       3.057985068806e+01 
       1.118420179455e-05       3.816321015977e+01 
       1.408007584980e-05       4.762710319370e+01 
       1.772576528730e-05       5.943783854852e+01 
       2.231541636368e-05       7.417732549870e+01 
       2.809344473501e-05       9.257170417820e+01 
       3.536755148174e-05       1.155270397016e+02 
       4.452510931330e-05       1.441737965009e+02 
       5.605379157742e-05       1.799222007648e+02 
       7.056754264423e-05       2.245310543052e+02 
       8.883927268269e-05       2.801930676862e+02 
       1.118420179455e-04       3.496402862553e+02 
       1.408007584980e-04       4.362735806620e+02 
       1.772576528730e-04       5.443202386625e+02 
       2.231541636368e-04       6.790230162958e+02 
       2.809344473501e-04       8.468619171745e+02 
       3.536755148174e-04       1.055805599496e+03 
       4.452510931330e-04       1.315582017152e+03 
       5.605379157742e-04       1.637948211914e+03 
       7.056754264423e-04       2.036928594430e+03 
       8.883927268269e-04       2.528973530204e+03 
       1.118420179455e-03       3.132931573157e+03 
       1.408007584980e-03       3.869602090228e+03 
       1.772576528730e-03       4.760589758387e+03 
       2.231541636368e-03       5.826247541953e+03 
       2.809344473501e-03       7.082274060765e+03 
       3.536755148174e-03       8.534722208601e+03 
       4.452510931330e-03       1.017338894235e+04 
       5.605379157742e-03       1.196346723233e+04 
       7.056754264423e-03       1.376653009532e+04 
       8.883927268269e-03       1.558132653928e+04 
       1.118420179455e-02       1.719771359554e+04 
       1.408007584980e-02       1.840480978757e+04 
       1.772576528727e-02       1.895917050434e+04 
       2.231541615855e-02       1.863554618313e+04 
       2.809329417544e-02       1.733583260633e+04 
       3.534732233081e-02       1.525000412000e+04 
       4.386973148946e-02       1.303708007014e+04 
       5.100462966136e-02       1.162838246500e+04 
       5.618829785301e-02       1.082625531378e+04 
       6.047102598045e-02       1.025683432696e+04 
       6.429869508276e-02       9.789097253980e+03 
       6.787070360183e-02       9.369127609195e+03 
       7.129285087583e-02       8.971120691119e+03 
       7.462868677075e-02       8.582391441370e+03 
       7.792001020258e-02       8.197610616646e+03 
       8.119631050568e-02       7.816073948005e+03 
       8.447960798191e-02       7.440097387117e+03 
       8.778714694436e-02       7.073858459657e+03 
       9.113299298913e-02       6.722429666743e+03 
       9.452903017963e-02       6.390924260047e+03 
       9.798561015301e-02       6.083747303278e+03 
       1.015119894457e-01       5.803976996933e+03 
       1.051166326394e-01       5.552906017982e+03 
       1.088074274735e-01       5.329771467133e+03 
       1.125918404045e-01       5.131698893126e+03 
       1.164770307828e-01       4.953886399432e+03 
       1.204699355781e-01       4.790054840429e+03 
       1.245773327163e-01       4.633176447440e+03 
       1.288058886179e-01       4.476450932288e+03 
       1.331621939318e-01       4.314419417211e+03 
       1.376527904023e-01       4.144007947118e+03 
       1.422841911072e-01       3.965218937352e+03 
       1.470628958398e-01       3.781201531470e+03 
       1.519954030973e-01       3.597565514921e+03 
       1.570882199348e-01       3.421032794348e+03 
       1.623478708110e-01       3.257750441329e+03 
       1.677809064680e-01       3.111714040283e+03 
       1.733939138359e-01       2.983724441678e+03 
       1.791935279180e-01       2.871167246943e+03 
       1.851864465940e-01       2.768731999871e+03 
       1.913794492616e-01       2.669987198806e+03 
       1.977794202314e-01       2.569450067775e+03 
       2.043933777818e-01       2.464467111758e+03 
       2.112285097862e-01       2.356075029362e+03 
       2.182922168401e-01       2.248319184451e+03 
       2.255921638467e-01       2.146251367653e+03 
       2.331363410883e-01       2.053556216557e+03 
       2.409331359096e-01       1.970956179067e+03 
       2.489914163020e-01       1.896130091566e+03 
       2.573206279079e-01       1.825148649184e+03 
       2.659309062925e-01       1.754679881132e+03 
       2.748332067791e-01       1.683717411214e+03 
       2.840394547472e-01       1.613750051002e+03 
       2.935627201009e-01       1.547301476794e+03 
       3.034174206809e-01       1.485962648016e+03 
       3.136195608030e-01       1.429370142733e+03 
       3.241870129772e-01       1.375775664894e+03 
       3.351398533482e-01       1.323591341085e+03 
       3.465007647436e-01       1.272539032372e+03 
       3.582955257469e-01       1.223447840528e+03 
       3.705536104369e-01       1.177079711795e+03 
       3.833089320912e-01       1.133287050147e+03 
       3.966007763630e-01       1.091300294237e+03 
       4.104749869533e-01       1.050613683347e+03 
       4.249854923383e-01       1.011332439560e+03 
       4.401963000518e-01       9.736793935254e+02 
       4.561841425443e-01       9.375009158048e+02 
       4.730420477991e-01       9.024471123257e+02 
       4.908842495129e-01       8.683703013061e+02 
       5.098530827949e-01       8.352524657395e+02 
       5.301289002142e-01       8.029308208344e+02 
       5.519447198470e-01       7.711701407609e+02 
       5.756085410344e-01       7.397984367678e+02 
       6.015385756096e-01       7.085898397263e+02 
       6.303212306313e-01       6.772288407776e+02 
       6.628113098534e-01       6.453359573651e+02 
       7.003154369429e-01       6.123707903317e+02 
       7.449512932913e-01       5.775418825667e+02 
       8.004074555774e-01       5.396043209630e+02 
       8.736798166354e-01       4.964809726473e+02 
       9.791722321882e-01       4.446653484112e+02 
       1.146213806579e+00       3.794692149910e+02 
       1.411683449905e+00       3.022916487536e+02 
       1.774427187406e+00       2.280688043465e+02 
       2.233820176927e+00       1.650017246896e+02 
       2.812212801217e+00       1.146812372859e+02 
       3.540366158731e+00       7.694719603590e+01 
       4.457056924283e+00       5.015903360592e+01 
       5.611102223792e+00       3.196127225862e+01 
       7.063959177707e+00       2.001349455300e+01 
       8.892997716692e+00       1.236857175340e+01 
       1.119562081257e+01       7.569626007920e+00 
