# Matter power spectrum P(k) at redshift z=2
# for k=1.18453e-05 to 11.8618 h/Mpc,
# number of wavenumbers equal to 122
#    1:k (h/Mpc)              2:P (Mpc/h)^3        
       1.184531506598e-05       4.805563611450e+00 
       1.491236814728e-05       5.962577784420e+00 
       1.877355921064e-05       7.398158715812e+00 
       2.363451076009e-05       9.179371626895e+00 
       2.975408619120e-05       1.138942790608e+01 
       3.745817521082e-05       1.413156355099e+01 
       4.715704865234e-05       1.753386068730e+01 
       5.936720689364e-05       2.175521186416e+01 
       7.473888538565e-05       2.699271774391e+01 
       9.409068206116e-05       3.349083572525e+01 
       1.184531506598e-04       4.155269146209e+01 
       1.491236814728e-04       5.155401823401e+01 
       1.877355921064e-04       6.396028416547e+01 
       2.363451076009e-04       7.934760278799e+01 
       2.975408619120e-04       9.842803431584e+01 
       3.745817521082e-04       1.220797614939e+02 
       4.715704865234e-04       1.513822861429e+02 
       5.936720689364e-04       1.876561125207e+02 
       7.473888538565e-04       2.325052860936e+02 
       9.409068206116e-04       2.878597919440e+02 
       1.184531506598e-03       3.560135276927e+02 
       1.491236814728e-03       4.396031534064e+02 
       1.877355921064e-03       5.417122863533e+02 
       2.363451076009e-03       6.657150526877e+02 
       2.975408619120e-03       8.151011698447e+02 
       3.745817521082e-03       9.931416747731e+02 
       4.715704865234e-03       1.202317137365e+03 
       5.936720689364e-03       1.443391775174e+03 
       7.473888538565e-03       1.714021974784e+03 
       9.409068206116e-03       2.006870376768e+03 
       1.184531506598e-02       2.306779690710e+03 
       1.491236814728e-02       2.588483231270e+03 
       1.877355920839e-02       2.814781536099e+03 
       2.363450587980e-02       2.940301966501e+03 
       2.975249455900e-02       2.926807436659e+03 
       3.734798378369e-02       2.775288486204e+03 
       4.527463058958e-02       2.579817240578e+03 
       5.107669491496e-02       2.450495997605e+03 
       5.555382572311e-02       2.362719567928e+03 
       5.941118245994e-02       2.293465739059e+03 
       6.293720071372e-02       2.232865599832e+03 
       6.627206369303e-02       2.175888388123e+03 
       6.949486670498e-02       2.119609217901e+03 
       7.265527598392e-02       2.062282129664e+03 
       7.578708275042e-02       2.002940671048e+03 
       7.891478194005e-02       1.941205745188e+03 
       8.205708164011e-02       1.877200798075e+03 
       8.522891678218e-02       1.811447534666e+03 
       8.844267323271e-02       1.744791209076e+03 
       9.170896742032e-02       1.678302726792e+03 
       9.503716223230e-02       1.613166767944e+03 
       9.843571934578e-02       1.550543464380e+03 
       1.019124462088e-01       1.491446632267e+03 
       1.054746729026e-01       1.436624858308e+03 
       1.091293809682e-01       1.386443826071e+03 
       1.128832984768e-01       1.340821122158e+03 
       1.167429708448e-01       1.299208287558e+03 
       1.207148138882e-01       1.260605557593e+03 
       1.248051536814e-01       1.223668592539e+03 
       1.290202565215e-01       1.186897410748e+03 
       1.333663514669e-01       1.148861406435e+03 
       1.378496473609e-01       1.108494934001e+03 
       1.424763458844e-01       1.065338492514e+03 
       1.472526519332e-01       1.019684295189e+03 
       1.521847824590e-01       9.725701930728e+02 
       1.572789748064e-01       9.255975364886e+02 
       1.625414955176e-01       8.805689816790e+02 
       1.679786505305e-01       8.390595673969e+02 
       1.735967976761e-01       8.019256556283e+02 
       1.794023623606e-01       7.691334796384e+02 
       1.854018573071e-01       7.396923965898e+02 
       1.916019072276e-01       7.119357328784e+02 
       1.980092792909e-01       6.838347565274e+02 
       2.046309202620e-01       6.539626012180e+02 
       2.114740012084e-01       6.220895624358e+02 
       2.185459707160e-01       5.891995659245e+02 
       2.258546176296e-01       5.569937627603e+02 
       2.334081444581e-01       5.272091470404e+02 
       2.412152527625e-01       5.008605341622e+02 
       2.492852421081e-01       4.776817280537e+02 
       2.576281245206e-01       4.562928516528e+02 
       2.662547568782e-01       4.350184472755e+02 
       2.751769943315e-01       4.127762666553e+02 
       2.844078687133e-01       3.897327185588e+02 
       2.939617970605e-01       3.672065231864e+02 
       3.038548268958e-01       3.465652216538e+02 
       3.141049269485e-01       3.282320400823e+02 
       3.247323347052e-01       3.114525891841e+02 
       3.357599758412e-01       2.949334573153e+02 
       3.472139755678e-01       2.780518821489e+02 
       3.591242888226e-01       2.612675854098e+02 
       3.715254858628e-01       2.455650618721e+02 
       3.844577435262e-01       2.313079680394e+02 
       3.979681122102e-01       2.179000682512e+02 
       4.121121577203e-01       2.045890640999e+02 
       4.269561207586e-01       1.914069586752e+02 
       4.425798036066e-01       1.789225059642e+02 
       4.590804981949e-01       1.673045759452e+02 
       4.765784379649e-01       1.560781128170e+02 
       4.952245341512e-01       1.449851460911e+02 
       5.152116322189e-01       1.343499003394e+02 
       5.367913651190e-01       1.242148652697e+02 
       5.603002300933e-01       1.142398488855e+02 
       5.862015075888e-01       1.045026184924e+02 
       6.151557259707e-01       9.500213699313e+01 
       6.481455092133e-01       8.554301979932e+01 
       6.867109293242e-01       7.611395718912e+01 
       7.334263650042e-01       6.652129551898e+01 
       7.929463886036e-01       5.659426352358e+01 
       8.744596542623e-01       4.607995436614e+01 
       9.972349379242e-01       3.479909356854e+01 
       1.196201875830e+00       2.338890600602e+01 
       1.493728207209e+00       1.422251426572e+01 
       1.879969108148e+00       8.389184928881e+00 
       2.366736130000e+00       4.887550711842e+00 
       2.979544249708e+00       2.817580839679e+00 
       3.751023971522e+00       1.608980974467e+00 
       4.722259397998e+00       9.109982141236e-01 
       5.944972357223e+00       5.118353193536e-01 
       7.484276772922e+00       2.855611921968e-01 
       9.422146218333e+00       1.583087509621e-01 
       1.186177930790e+01       8.725419088554e-02 
