# Matter power spectrum P(k) at redshift z=0
# for k=1.05127e-05 to 10.524 h/Mpc,
# number of wavenumbers equal to 122
#    1:k (h/Mpc)              2:P (Mpc/h)^3        
       1.051267694422e-05       4.099293069541e+01 
       1.323467615106e-05       5.103856867946e+01 
       1.666147012343e-05       6.354591279447e+01 
       2.097554813624e-05       7.911817423630e+01 
       2.640665057502e-05       9.850630614203e+01 
       3.324400344926e-05       1.226452082155e+02 
       4.185172073205e-05       1.526986139905e+02 
       5.268819475689e-05       1.901150091828e+02 
       6.633050728101e-05       2.366969433033e+02 
       8.350516119326e-05       2.946869312912e+02 
       1.051267694422e-04       3.668735751309e+02 
       1.323467615106e-04       4.567220717396e+02 
       1.666147012343e-04       5.685335859914e+02 
       2.097554813624e-04       7.076377621542e+02 
       2.640665057502e-04       8.806213979712e+02 
       3.324400344926e-04       1.095593350049e+03 
       4.185172073205e-04       1.362480424758e+03 
       5.268819475689e-04       1.693341494778e+03 
       6.633050728101e-04       2.102678146352e+03 
       8.350516119326e-04       2.607704859165e+03 
       1.051267694422e-03       3.228494681326e+03 
       1.323467615106e-03       3.987697882095e+03 
       1.666147012343e-03       4.909959301172e+03 
       2.097554813624e-03       6.020380345341e+03 
       2.640665057502e-03       7.341458887951e+03 
       3.324400344926e-03       8.888593968235e+03 
       4.185172073205e-03       1.066344404962e+04 
       5.268819475689e-03       1.264425101104e+04 
       6.633050728101e-03       1.477289170062e+04 
       8.350516119326e-03       1.694121926707e+04 
       1.051267694422e-02       1.897127465621e+04 
       1.323467615106e-02       2.060179060377e+04 
       1.666147012328e-02       2.149684129801e+04 
       2.097554751616e-02       2.129893896350e+04 
       2.640631372720e-02       1.980223246066e+04 
       3.320858199606e-02       1.723659884823e+04 
       4.093705627485e-02       1.461472610811e+04 
       4.702949757973e-02       1.311165615396e+04 
       5.154339536740e-02       1.229457661846e+04 
       5.533488219301e-02       1.174461934205e+04 
       5.875338421950e-02       1.131088078695e+04 
       6.196002129533e-02       1.092560928837e+04 
       6.504229015176e-02       1.055275741779e+04 
       6.805362990132e-02       1.017176908588e+04 
       7.102963490383e-02       9.772966899482e+03 
       7.399567032668e-02       9.351687606639e+03 
       7.697083490833e-02       8.910333065248e+03 
       7.997019111260e-02       8.455288565716e+03 
       8.300609998129e-02       7.995407921288e+03 
       8.608906067327e-02       7.541884978227e+03 
       8.922826028160e-02       7.106232369135e+03 
       9.243194612832e-02       6.699221169766e+03 
       9.570768490402e-02       6.330059106553e+03 
       9.906254717533e-02       6.004500123731e+03 
       1.025032411731e-01       5.724743407196e+03 
       1.060362111897e-01       5.489153934252e+03 
       1.096677107013e-01       5.291773863379e+03 
       1.134038570776e-01       5.123006465807e+03 
       1.172506726620e-01       4.970192274108e+03 
       1.212141156527e-01       4.819339923356e+03 
       1.253001033226e-01       4.657327434673e+03 
       1.295145295247e-01       4.473867583820e+03 
       1.338632780328e-01       4.264460487591e+03 
       1.383522330059e-01       4.031852787535e+03 
       1.429872876939e-01       3.784638980535e+03 
       1.477743523876e-01       3.537013972213e+03 
       1.527193625502e-01       3.304143666066e+03 
       1.578282880176e-01       3.098914613256e+03 
       1.631071441328e-01       2.928507658025e+03 
       1.685620056575e-01       2.792262833748e+03 
       1.741990242959e-01       2.682077203238e+03 
       1.800244506543e-01       2.585124207371e+03 
       1.860446614605e-01       2.484588141763e+03 
       1.922661928690e-01       2.368218736558e+03 
       1.986957806945e-01       2.233034306957e+03 
       2.053404084509e-01       2.086306394395e+03 
       2.122073641368e-01       1.941067654569e+03 
       2.193043068080e-01       1.810750026871e+03 
       2.266393441317e-01       1.703424792377e+03 
       2.342211223415e-01       1.618279166063e+03 
       2.420589303223e-01       1.545566589565e+03 
       2.501628199836e-01       1.472705325985e+03 
       2.585437456503e-01       1.391018401696e+03 
       2.672137259687e-01       1.300470219181e+03 
       2.761860328327e-01       1.209897960265e+03 
       2.854754131730e-01       1.129542897693e+03 
       2.950983512257e-01       1.063222360562e+03 
       3.050733812576e-01       1.006659444653e+03 
       3.154214639057e-01       9.511805491527e+02 
       3.261664436055e-01       8.915750800495e+02 
       3.373356105235e-01       8.301464679556e+02 
       3.489603986900e-01       7.732515521236e+02 
       3.610772637398e-01       7.243113177452e+02 
       3.737288005127e-01       6.800942746182e+02 
       3.869651853921e-01       6.358055340030e+02 
       4.008460649716e-01       5.907314098157e+02 
       4.154430684888e-01       5.482251117350e+02 
       4.308432083624e-01       5.100637059485e+02 
       4.471535717860e-01       4.739252346835e+02 
       4.645079336494e-01       4.377866420485e+02 
       4.830763054876e-01       4.031972364463e+02 
       5.030791082558e-01       3.710890661127e+02 
       5.248088822334e-01       3.397014303993e+02 
       5.486647798794e-01       3.091042709069e+02 
       5.752097567031e-01       2.798219362783e+02 
       6.052702731873e-01       2.508935322319e+02 
       6.401206963930e-01       2.224670853079e+02 
       6.818488085203e-01       1.939718373394e+02 
       7.341390809202e-01       1.650280765450e+02 
       8.040819242674e-01       1.349632047055e+02 
       9.064108587118e-01       1.032310044410e+02 
       1.070278024233e+00       7.076428969189e+01 
       1.326062959424e+00       4.308561077235e+01 
       1.667960221378e+00       2.506939491605e+01 
       2.099816615682e+00       1.441539744128e+01 
       2.643512441540e+00       8.215942137195e+00 
       3.327984989028e+00       4.645458736642e+00 
       4.189684872757e+00       2.607499880693e+00 
       5.274500753724e+00       1.454021520079e+00 
       6.640203033391e+00       8.059880224259e-01 
       8.359520338208e+00       4.443065162123e-01 
       1.052401258418e+01       2.437045919004e-01 
