# Matter power spectrum P(k) at redshift z=1.5
# for k=7.90667e-06 to 12.544 h/Mpc,
# number of wavenumbers equal to 124
#    1:k (h/Mpc)              2:P (Mpc/h)^3        
       7.906674783403e-06       3.432645701094e+01 
       9.953913807619e-06       4.284471449253e+01 
       1.253123503922e-05       5.347673731462e+01 
       1.577589023204e-05       6.674681913115e+01 
       1.986066910679e-05       8.330940574228e+01 
       2.500310103377e-05       1.039809326595e+02 
       3.147703926507e-05       1.297798559697e+02 
       3.962724461885e-05       1.619762256547e+02 
       4.988774525005e-05       2.021529425780e+02 
       6.280495023240e-05       2.522811546311e+02 
       7.906674783403e-05       3.148121818112e+02 
       9.953913807619e-05       3.927879822576e+02 
       1.253123503922e-04       4.899707985709e+02 
       1.577589023204e-04       6.109891379406e+02 
       1.986066910679e-04       7.614901934882e+02 
       2.500310103377e-04       9.482756332498e+02 
       3.147703926507e-04       1.179376317376e+03 
       3.962724461884e-04       1.463993168661e+03 
       4.988774525005e-04       1.812209780463e+03 
       6.280495023240e-04       2.234398155434e+03 
       7.906674783403e-04       2.740307165760e+03 
       9.953913807619e-04       3.337798861840e+03 
       1.253123503922e-03       4.030785778905e+03 
       1.577589023204e-03       4.815767201398e+03 
       1.986066910679e-03       5.677880644892e+03 
       2.500310103377e-03       6.587552299027e+03 
       3.147703926507e-03       7.498295791199e+03 
       3.962724461885e-03       8.345606552752e+03 
       4.988774525005e-03       9.049986787865e+03 
       6.280495023240e-03       9.521484465674e+03 
       7.906674783403e-03       9.669072796353e+03 
       9.953913807619e-03       9.408628794730e+03 
       1.253123503922e-02       8.675763278747e+03 
       1.577589023198e-02       7.451526919325e+03 
       1.986066881626e-02       5.814151487992e+03 
       2.500291175902e-02       4.007872524937e+03 
       3.145396022973e-02       2.446730433079e+03 
       3.894291894359e-02       1.534186506919e+03 
       4.505934563755e-02       1.245993826731e+03 
       4.953471798373e-02       1.170559524077e+03 
       5.325702515636e-02       1.145435386964e+03 
       5.659561032660e-02       1.127301902509e+03 
       5.971764060358e-02       1.100141139399e+03 
       6.271263749726e-02       1.057503947815e+03 
       6.563473070046e-02       9.980482770558e+02 
       6.851970143356e-02       9.237091114674e+02 
       7.139289388311e-02       8.385941298361e+02 
       7.427329528523e-02       7.480828849847e+02 
       7.717581623756e-02       6.578437315884e+02 
       8.011264806950e-02       5.730673483671e+02 
       8.309411273618e-02       4.978713675986e+02 
       8.612921737730e-02       4.350161190009e+02 
       8.922602868450e-02       3.857499827950e+02 
       9.239193283161e-02       3.500476278540e+02 
       9.563382016730e-02       3.268951229990e+02 
       9.895821892018e-02       3.145219978155e+02 
       1.023713934136e-01       3.104296093551e+02 
       1.058794169893e-01       3.115481122851e+02 
       1.094882265406e-01       3.142380705357e+02 
       1.132036634495e-01       3.146877211633e+02 
       1.170315043601e-01       3.094773235268e+02 
       1.209774843157e-01       2.964767098312e+02 
       1.250473141932e-01       2.754383319131e+02 
       1.292466939666e-01       2.482629002191e+02 
       1.335813230704e-01       2.183816830595e+02 
       1.380569089562e-01       1.897316302022e+02 
       1.426791748252e-01       1.656106194239e+02 
       1.474538674484e-01       1.479359005397e+02 
       1.523867659386e-01       1.370652174323e+02 
       1.574836923131e-01       1.319794178672e+02 
       1.627505246662e-01       1.305440652338e+02 
       1.681932137615e-01       1.299476678386e+02 
       1.738178038415e-01       1.273459233317e+02 
       1.796304584533e-01       1.209325187074e+02 
       1.856374920895e-01       1.108259952100e+02 
       1.918454084582e-01       9.880727619078e+01 
       1.982609462280e-01       8.741692301805e+01 
       2.048911331511e-01       7.858796691580e+01 
       2.117433495604e-01       7.281646663745e+01 
       2.188254023826e-01       6.941936922713e+01 
       2.261456110142e-01       6.709314593549e+01 
       2.337129067032e-01       6.428531972168e+01 
       2.415369474774e-01       6.000984016670e+01 
       2.496282512052e-01       5.463911393915e+01 
       2.579983500888e-01       4.936592372617e+01 
       2.666599708470e-01       4.512815713673e+01 
       2.756272461015e-01       4.216612583758e+01 
       2.849159641508e-01       3.989141654004e+01 
       2.945438665389e-01       3.748035819656e+01 
       3.045310058148e-01       3.467525348952e+01 
       3.149001799353e-01       3.170321414698e+01 
       3.256774653328e-01       2.910220135013e+01 
       3.368928784282e-01       2.703125073939e+01 
       3.485812063233e-01       2.519517924854e+01 
       3.607830631308e-01       2.330223747703e+01 
       3.735462513571e-01       2.139710525677e+01 
       3.869275419026e-01       1.966352547348e+01 
       4.009950380856e-01       1.811886354329e+01 
       4.158313695737e-01       1.667248866925e+01 
       4.315380901519e-01       1.527765854776e+01 
       4.482418626245e-01       1.394290028831e+01 
       4.661033671014e-01       1.272304641375e+01 
       4.853304846488e-01       1.156486943741e+01 
       5.061984247628e-01       1.045666585408e+01 
       5.290815802435e-01       9.411932810392e+00 
       5.545061047127e-01       8.411788337608e+00 
       5.832410825561e-01       7.448827266536e+00 
       6.164660896985e-01       6.518439786400e+00 
       6.561008980256e-01       5.604688136000e+00 
       7.055064213529e-01       4.697193331441e+00 
       7.710934887272e-01       3.779952492990e+00 
       8.661126174530e-01       2.840479352148e+00 
       1.017281826833e+00       1.906027436152e+00 
       1.255991304373e+00       1.124524804422e+00 
       1.579224346826e+00       6.300363934337e-01 
       1.988092584264e+00       3.498282653321e-01 
       2.502860169012e+00       1.931949363638e-01 
       3.150914268890e+00       1.061660684462e-01 
       3.966766043490e+00       5.807667392245e-02 
       4.993862574792e+00       3.163612694203e-02 
       6.286900498414e+00       1.716643279346e-02 
       7.914738798874e+00       9.280441647780e-03 
       9.964065801616e+00       5.000239445736e-03 
       1.254401564244e+01       2.685265091951e-03 
