# Matter power spectrum P(k) at redshift z=2
# for k=1.03663e-05 to 10.379 h/Mpc,
# number of wavenumbers equal to 122
#    1:k (h/Mpc)              2:P (Mpc/h)^3        
       1.036634038797e-05       9.882512690070e+00 
       1.305044934172e-05       1.225340775839e+01 
       1.642954231163e-05       1.519308978053e+01 
       2.068356832026e-05       1.883800277365e+01 
       2.603906976495e-05       2.335731503123e+01 
       3.278124662658e-05       2.896074999119e+01 
       4.126914440849e-05       3.590830466853e+01 
       5.195477461886e-05       4.452225025889e+01 
       6.540718603172e-05       5.520199337644e+01 
       8.234276860928e-05       6.844239488649e+01 
       1.036634038797e-04       8.485632470032e+01 
       1.305044934172e-04       1.052022883288e+02 
       1.642954231163e-04       1.304180344595e+02 
       2.068356832026e-04       1.616609754335e+02 
       2.603906976495e-04       2.003559232980e+02 
       3.278124662658e-04       2.482498150433e+02 
       4.126914440849e-04       3.074714387262e+02 
       5.195477461886e-04       3.805913333239e+02 
       6.540718603172e-04       4.706730205289e+02 
       8.234276860928e-04       5.813027714694e+02 
       1.036634038797e-03       7.165830543719e+02 
       1.305044934172e-03       8.810711322970e+02 
       1.642954231163e-03       1.079615573114e+03 
       2.068356832026e-03       1.316950863970e+03 
       2.603906976495e-03       1.597066377741e+03 
       3.278124662658e-03       1.922163868121e+03 
       4.126914440849e-03       2.291278335970e+03 
       5.195477461886e-03       2.698401490039e+03 
       6.540718603172e-03       3.130199067802e+03 
       8.234276860928e-03       3.563608532042e+03 
       1.036634038797e-02       3.963036515669e+03 
       1.305044934172e-02       4.279960578574e+03 
       1.642954231117e-02       4.454999252580e+03 
       2.068356690795e-02       4.430046241075e+03 
       2.603845296647e-02       4.176195163994e+03 
       3.272697137499e-02       3.737233647345e+03 
       4.008899916265e-02       3.287743251631e+03 
       4.568112641407e-02       3.015058800286e+03 
       4.989458966410e-02       2.844609770748e+03 
       5.347384844731e-02       2.715633784221e+03 
       5.672059607203e-02       2.605597949616e+03 
       5.977711346222e-02       2.504391310100e+03 
       6.272195631916e-02       2.406824557784e+03 
       6.560367982340e-02       2.310254669106e+03 
       6.845492123618e-02       2.213508390213e+03 
       7.129910885220e-02       2.116483563555e+03 
       7.415399052143e-02       2.019682577516e+03 
       7.703363600114e-02       1.924142263574e+03 
       7.994964342662e-02       1.831125629707e+03 
       8.291190220065e-02       1.742005395638e+03 
       8.592909482857e-02       1.658014629307e+03 
       8.900903796895e-02       1.580146500133e+03 
       9.215892054308e-02       1.508969900645e+03 
       9.538547368592e-02       1.444571293058e+03 
       9.869509421923e-02       1.386511069496e+03 
       1.020939355957e-01       1.333787611773e+03 
       1.055879755514e-01       1.284995004673e+03 
       1.091830667532e-01       1.238456782635e+03 
       1.128849748380e-01       1.192434492878e+03 
       1.166994070091e-01       1.145420019766e+03 
       1.206320335399e-01       1.096408970826e+03 
       1.246885039981e-01       1.045130864007e+03 
       1.288744596377e-01       9.921389318445e+02 
       1.331955431726e-01       9.387117255026e+02 
       1.376574069847e-01       8.865734921097e+02 
       1.422657207225e-01       8.374520193572e+02 
       1.470261791765e-01       7.926811284303e+02 
       1.519445112850e-01       7.528117727965e+02 
       1.570264910915e-01       7.174653378782e+02 
       1.622779514654e-01       6.854431902066e+02 
       1.677048013815e-01       6.550090748603e+02 
       1.733130475503e-01       6.245228492502e+02 
       1.791088211881e-01       5.929900317579e+02 
       1.850984107194e-01       5.603416517103e+02 
       1.912883012237e-01       5.274759276113e+02 
       1.976852214731e-01       4.958853958870e+02 
       2.042961994719e-01       4.669391365031e+02 
       2.111286275117e-01       4.411338339341e+02 
       2.181903379098e-01       4.178807758517e+02 
       2.254896908226e-01       3.961268553274e+02 
       2.330356758363e-01       3.748768825828e+02 
       2.408380294616e-01       3.535182680165e+02 
       2.489073712320e-01       3.322173518987e+02 
       2.572553618593e-01       3.117992325358e+02 
       2.658948879073e-01       2.929485040780e+02 
       2.748402787673e-01       2.757824859818e+02 
       2.841075634822e-01       2.598635912743e+02 
       2.937147773103e-01       2.444689613778e+02 
       3.036823310855e-01       2.293518138819e+02 
       3.140334607308e-01       2.147789576307e+02 
       3.247947802093e-01       2.010894598364e+02 
       3.359969694745e-01       1.884094871849e+02 
       3.476756407115e-01       1.764255211205e+02 
       3.598724430608e-01       1.648847797171e+02 
       3.726364907869e-01       1.537683497737e+02 
       3.860262368632e-01       1.432786670916e+02 
       4.001119703966e-01       1.333720392427e+02 
       4.149792044101e-01       1.239174590380e+02 
       4.307333614764e-01       1.148519979406e+02 
       4.475063967121e-01       1.061903748553e+02 
       4.654663916019e-01       9.792749534032e+01 
       4.848318450267e-01       8.998772935418e+01 
       5.058936559265e-01       8.232554073773e+01 
       5.290502196202e-01       7.492877011333e+01 
       5.548659516450e-01       6.772841969851e+01 
       5.841740007823e-01       6.067658941452e+01 
       6.182677280429e-01       5.370064866665e+01 
       6.592837299123e-01       4.671266051306e+01 
       7.110307238248e-01       3.958544406925e+01 
       7.809180088860e-01       3.216250113832e+01 
       8.844217420049e-01       2.432408704653e+01 
       1.051247912371e+00       1.639928131425e+01 
       1.307355115179e+00       9.874654187576e+00 
       1.644961495195e+00       5.724532581049e+00 
       2.070873128908e+00       3.281464051054e+00 
       2.607074783719e+00       1.864161300300e+00 
       3.282112695666e+00       1.050466801009e+00 
       4.131935076946e+00       5.876106886547e-01 
       5.201798068251e+00       3.265118527460e-01 
       6.548675775142e+00       1.803367259465e-01 
       8.244294346928e+00       9.904944045865e-02 
       1.037895165566e+01       5.412699065857e-02 
