# Matter power spectrum P(k) at redshift z=2
# for k=1.14769e-05 to 11.4895 h/Mpc,
# number of wavenumbers equal to 122
#    1:k (h/Mpc)              2:P (Mpc/h)^3        
       1.147693131868e-05       5.870338747112e+00 
       1.444860048650e-05       7.312952891153e+00 
       1.818971031732e-05       9.110079008093e+00 
       2.289948855165e-05       1.134883166233e+01 
       2.882874805476e-05       1.413772706642e+01 
       3.629324351635e-05       1.761193620622e+01 
       4.569048653916e-05       2.193982460074e+01 
       5.752091458139e-05       2.733108618143e+01 
       7.241454107616e-05       3.404685306539e+01 
       9.116450594419e-05       4.241224508910e+01 
       1.147693131868e-04       5.283191895110e+01 
       1.444860048650e-04       6.580925959415e+01 
       1.818971031732e-04       8.196995955010e+01 
       2.289948855165e-04       1.020907355893e+02 
       2.882874805476e-04       1.271338524621e+02 
       3.629324351635e-04       1.582877658029e+02 
       4.569048653916e-04       1.970133960137e+02 
       5.752091458139e-04       2.450940659060e+02 
       7.241454107616e-04       3.046848920804e+02 
       9.116450594419e-04       3.783548570552e+02 
       1.147693131868e-03       4.691128677875e+02 
       1.444860048650e-03       5.803869446008e+02 
       1.818971031732e-03       7.159910692097e+02 
       2.289948855165e-03       8.799483045945e+02 
       2.882874805476e-03       1.076068432866e+03 
       3.629324351635e-03       1.307349438788e+03 
       4.569048653916e-03       1.575045861306e+03 
       5.752091458139e-03       1.877281358762e+03 
       7.241454107616e-03       2.207137092236e+03 
       9.116450594419e-03       2.550321302408e+03 
       1.147693131868e-02       2.881957029108e+03 
       1.444860048650e-02       3.164578936646e+03 
       1.818971031712e-02       3.347488677081e+03 
       2.289948778633e-02       3.374361504682e+03 
       2.882834533795e-02       3.206552048669e+03 
       3.625198094132e-02       2.865807851626e+03 
       4.465095355656e-02       2.492699365145e+03 
       5.123346855178e-02       2.268166152709e+03 
       5.612195945771e-02       2.140325202202e+03 
       6.023500371087e-02       2.051281444721e+03 
       6.394676807164e-02       1.979492806843e+03 
       6.743034703650e-02       1.915096098550e+03 
       7.077996901473e-02       1.852771789625e+03 
       7.405328540595e-02       1.789507321922e+03 
       7.728874740771e-02       1.723690253667e+03 
       8.051378519634e-02       1.654737807935e+03 
       8.374907062974e-02       1.582860845402e+03 
       8.701091911581e-02       1.508896467166e+03 
       9.031272863480e-02       1.434159452807e+03 
       9.366588550493e-02       1.360256000113e+03 
       9.708035795421e-02       1.288905637428e+03 
       1.005650982569e-01       1.221740470688e+03 
       1.041283227679e-01       1.160127377686e+03 
       1.077777113788e-01       1.105016099297e+03 
       1.115205521866e-01       1.056805293120e+03 
       1.153638479161e-01       1.015271010711e+03 
       1.193143950178e-01       9.795671639319e+02 
       1.233788428541e-01       9.482477531512e+02 
       1.275637381420e-01       9.194255316410e+02 
       1.318755583621e-01       8.909826739450e+02 
       1.363207368803e-01       8.609043503889e+02 
       1.409056818877e-01       8.276674649193e+02 
       1.456367908402e-01       7.905781962321e+02 
       1.505204617924e-01       7.499824963379e+02 
       1.555631028399e-01       7.072423347958e+02 
       1.607711407589e-01       6.644624497273e+02 
       1.661510298590e-01       6.239834223267e+02 
       1.717092620166e-01       5.878340494040e+02 
       1.774523788266e-01       5.571317429161e+02 
       1.833869867903e-01       5.318226533720e+02 
       1.895197764461e-01       5.106512782918e+02 
       1.958575463406e-01       4.916435352988e+02 
       2.024072327327e-01       4.721722988342e+02 
       2.091759459324e-01       4.503258044502e+02 
       2.161710141881e-01       4.256379915300e+02 
       2.234000360791e-01       3.992365329297e+02 
       2.308709424374e-01       3.731815614699e+02 
       2.385920689306e-01       3.495623221748e+02 
       2.465722406130e-01       3.296691237263e+02 
       2.548208699878e-01       3.133724350682e+02 
       2.633480704713e-01       2.991278744049e+02 
       2.721647876134e-01       2.849348764817e+02 
       2.812829510562e-01       2.694267237287e+02 
       2.907156510486e-01       2.526080635669e+02 
       3.004773444396e-01       2.358747669540e+02 
       3.105840965318e-01       2.208702211024e+02 
       3.210538671150e-01       2.081913870358e+02 
       3.319068515823e-01       1.971493729136e+02 
       3.431658915043e-01       1.863414730059e+02 
       3.548569737605e-01       1.749344099031e+02 
       3.670098438196e-01       1.633114596346e+02 
       3.796587678218e-01       1.524944621408e+02 
       3.928434909291e-01       1.430315304316e+02 
       4.066104578430e-01       1.343880779569e+02 
       4.210143883538e-01       1.257762493689e+02 
       4.361203409899e-01       1.170888252336e+02 
       4.520064590233e-01       1.088829306373e+02 
       4.687676883335e-01       1.014307352038e+02 
       4.865209086359e-01       9.434389931059e+01 
       5.054121689749e-01       8.729398905881e+01 
       5.256271403979e-01       8.053646694774e+01 
       5.474066381075e-01       7.421957702009e+01 
       5.710704125650e-01       6.804199187740e+01 
       5.970549752590e-01       6.201826769784e+01 
       6.259763668312e-01       5.622596215228e+01 
       6.587396870534e-01       5.049770578249e+01 
       6.967419030183e-01       4.485234174488e+01 
       7.422743691857e-01       3.917739466922e+01 
       7.993866363849e-01       3.339341376659e+01 
       8.758838987085e-01       2.736297173394e+01 
       9.879987357048e-01       2.097294750164e+01 
       1.167725322728e+00       1.441090828523e+01 
       1.447636249784e+00       8.809480925493e+00 
       1.820979398608e+00       5.151585841503e+00 
       2.292456455486e+00       2.976151821476e+00 
       2.886031633266e+00       1.703515841457e+00 
       3.633298562342e+00       9.669490782135e-01 
       4.574051888768e+00       5.447250228668e-01 
       5.758390157635e+00       3.047688480342e-01 
       7.249383700472e+00       1.694530225157e-01 
       9.126433360371e+00       9.367962206199e-02 
       1.148949887642e+01       5.151995855010e-02 
