# Matter power spectrum P(k) at redshift z=2
# for k=1.07236e-05 to 10.7347 h/Mpc,
# number of wavenumbers equal to 122
#    1:k (h/Mpc)              2:P (Mpc/h)^3        
       1.072364813386e-05       1.016996785639e+01 
       1.350027314286e-05       1.261505083861e+01 
       1.699583692571e-05       1.564797389668e+01 
       2.139649100048e-05       1.941005076531e+01 
       2.693658624373e-05       2.407656040667e+01 
       3.391115292922e-05       2.986488918162e+01 
       4.269161216583e-05       3.704463227554e+01 
       5.374555542602e-05       4.595009168798e+01 
       6.766164549681e-05       5.699572159699e+01 
       8.518096491974e-05       7.069519422834e+01 
       1.072364813386e-04       8.768483274115e+01 
       1.350027314286e-04       1.087522947926e+02 
       1.699583692571e-04       1.348713793182e+02 
       2.139649100048e-04       1.672437225420e+02 
       2.693658624373e-04       2.073476974769e+02 
       3.391115292922e-04       2.569937885320e+02 
       4.269161216583e-04       3.183836699211e+02 
       5.374555542602e-04       3.941667851024e+02 
       6.766164549681e-04       4.874835045521e+02 
       8.518096491974e-04       6.019794709136e+02 
       1.072364813386e-03       7.417742620821e+02 
       1.350027314286e-03       9.113653604039e+02 
       1.699583692571e-03       1.115417575954e+03 
       2.139649100048e-03       1.358302734082e+03 
       2.693658624373e-03       1.643314030238e+03 
       3.391115292922e-03       1.971591815835e+03 
       4.269161216583e-03       2.340651475471e+03 
       5.374555542602e-03       2.742528868908e+03 
       6.766164549681e-03       3.161664690652e+03 
       8.518096491974e-03       3.572915305621e+03 
       1.072364813386e-02       3.939380266658e+03 
       1.350027314286e-02       4.212859410680e+03 
       1.699583692563e-02       4.336588010310e+03 
       2.139649062157e-02       4.257329070270e+03 
       2.693635124231e-02       3.951870085288e+03 
       3.388362406836e-02       3.466798340214e+03 
       4.190503080650e-02       2.965264481326e+03 
       4.839171484437e-02       2.656680086060e+03 
       5.315325184940e-02       2.477848450076e+03 
       5.712430376765e-02       2.349131862330e+03 
       6.069111500343e-02       2.242480838737e+03 
       6.402937996864e-02       2.146009467641e+03 
       6.723354482742e-02       2.053895842686e+03 
       7.036087287518e-02       1.963254549661e+03 
       7.344929482025e-02       1.872859882568e+03 
       7.652572146757e-02       1.782508790615e+03 
       7.961034113869e-02       1.692768698813e+03 
       8.271902596733e-02       1.604649584647e+03 
       8.586476640145e-02       1.519406408482e+03 
       8.905857047890e-02       1.438338138980e+03 
       9.231005119090e-02       1.362609276884e+03 
       9.562782332054e-02       1.293103986218e+03 
       9.901977916191e-02       1.230289924293e+03 
       1.024932845399e-01       1.174164370470e+03 
       1.060553207780e-01       1.124198278295e+03 
       1.097125890170e-01       1.079372310138e+03 
       1.134715876900e-01       1.038277320212e+03 
       1.173386704663e-01       9.992772577500e+02 
       1.213200897526e-01       9.607056008432e+02 
       1.254220293934e-01       9.211491568860e+02 
       1.296506292582e-01       8.796856209353e+02 
       1.340120037703e-01       8.361080322664e+02 
       1.385122560092e-01       7.909679461067e+02 
       1.431574887411e-01       7.454946632525e+02 
       1.479538135440e-01       7.012995290937e+02 
       1.529073590780e-01       6.599707397210e+02 
       1.580242794729e-01       6.226881166919e+02 
       1.633107637616e-01       5.898873971947e+02 
       1.687730472520e-01       5.611782789034e+02 
       1.744174257192e-01       5.354168476514e+02 
       1.802502732797e-01       5.110355214833e+02 
       1.862780648060e-01       4.865449422878e+02 
       1.925074037339e-01       4.610361586735e+02 
       1.989450561197e-01       4.345197630979e+02 
       2.055979918192e-01       4.078225555778e+02 
       2.124734336951e-01       3.822530455708e+02 
       2.195789158221e-01       3.589829661094e+02 
       2.269223517600e-01       3.384420635787e+02 
       2.345121141213e-01       3.200762706720e+02 
       2.423571268838e-01       3.029271941548e+02 
       2.504669722162e-01       2.861801583186e+02 
       2.588520140160e-01       2.693552549575e+02 
       2.675235409455e-01       2.525731170922e+02 
       2.764939325241e-01       2.365196976006e+02 
       2.857768528651e-01       2.217795756925e+02 
       2.953874780035e-01       2.084071963683e+02 
       3.053427645620e-01       1.960504093832e+02 
       3.156617699004e-01       1.841323821341e+02 
       3.263660371226e-01       1.724309883893e+02 
       3.374800626894e-01       1.611906606427e+02 
       3.490318704090e-01       1.506552875349e+02 
       3.610537239495e-01       1.409238941156e+02 
       3.735830218661e-01       1.317545685617e+02 
       3.866634361345e-01       1.229401687169e+02 
       4.003463800185e-01       1.144741422167e+02 
       4.146929280675e-01       1.065060366348e+02 
       4.297763671821e-01       9.899891662831e+01 
       4.456856449046e-01       9.185158251054e+01 
       4.625301199526e-01       8.501530264228e+01 
       4.804462472412e-01       7.850749141533e+01 
       4.996072130332e-01       7.231177499642e+01 
       5.202372053406e-01       6.637662962773e+01 
       5.426332199724e-01       6.066674109416e+01 
       5.671996077878e-01       5.517393014168e+01 
       5.945051652956e-01       4.984747859643e+01 
       6.253822719277e-01       4.465289740320e+01 
       6.611094011842e-01       3.953926235626e+01 
       7.037709461549e-01       3.444459665266e+01 
       7.570238387096e-01       2.928679915920e+01 
       8.278601466388e-01       2.395749951755e+01 
       9.307537275694e-01       1.835913764898e+01 
       1.094754952009e+00       1.263016587432e+01 
       1.352972201673e+00       7.685080877632e+00 
       1.701357008344e+00       4.444481530790e+00 
       2.141850483859e+00       2.539204982998e+00 
       2.696429907170e+00       1.438199127066e+00 
       3.394604131219e+00       8.082738944089e-01 
       4.273553403773e+00       4.510616399500e-01 
       5.380084978669e+00       2.501098032932e-01 
       6.773125697258e+00       1.378762668569e-01 
       8.526860057555e+00       7.559960346543e-02 
       1.073468080927e+01       4.124987592861e-02 
