# Matter power spectrum P(k) at redshift z=2.5
# for k=9.02773e-06 to 11.3801 h/Mpc,
# number of wavenumbers equal to 123
#    1:k (h/Mpc)              2:P (Mpc/h)^3        
       9.027730535539e-06       1.085231324294e+01 
       1.136523938202e-05       1.359036948990e+01 
       1.430798866915e-05       1.701921779136e+01 
       1.801269052725e-05       2.131311541954e+01 
       2.267663383955e-05       2.669025436158e+01 
       2.854819059456e-05       3.342381525690e+01 
       3.594004260023e-05       4.185577825833e+01 
       4.524583293039e-05       5.241415798458e+01 
       5.696112885387e-05       6.563447235453e+01 
       7.170981259861e-05       8.218637678588e+01 
       9.027730535539e-05       1.029065631138e+02 
       1.136523938202e-04       1.288390216996e+02 
       1.430798866915e-04       1.612836552513e+02 
       1.801269052725e-04       2.018536296271e+02 
       2.267663383955e-04       2.525404270403e+02 
       2.854819059456e-04       3.157825777311e+02 
       3.594004260023e-04       3.945285105934e+02 
       4.524583293039e-04       4.922750711404e+02 
       5.696112885387e-04       6.130518944146e+02 
       7.170981259861e-04       7.613140242898e+02 
       9.027730535539e-04       9.417132518752e+02 
       1.136523938202e-03       1.158741481156e+03 
       1.430798866915e-03       1.416201829277e+03 
       1.801269052726e-03       1.716267041843e+03 
       2.267663383955e-03       2.057946589685e+03 
       2.854819059456e-03       2.435471360361e+03 
       3.594004260023e-03       2.836713514871e+03 
       4.524583293039e-03       3.241534856744e+03 
       5.696112885387e-03       3.620881581283e+03 
       7.170981259861e-03       3.937015463557e+03 
       9.027730535539e-03       4.143881585834e+03 
       1.136523938202e-02       4.191041478912e+03 
       1.430798866915e-02       4.028495160506e+03 
       1.801269052629e-02       3.621510302678e+03 
       2.267663128902e-02       2.980439311414e+03 
       2.854721364348e-02       2.202732960260e+03 
       3.586283493758e-02       1.488635972856e+03 
       4.373700033414e-02       1.066938460508e+03 
       4.960773598616e-02       9.198859943371e+02 
       5.407837735864e-02       8.629849571193e+02 
       5.790080667780e-02       8.325216352063e+02 
       6.138033536651e-02       8.084748465872e+02 
       6.466291537291e-02       7.824753041903e+02 
       6.782992415787e-02       7.507094745174e+02 
       7.093202051753e-02       7.118477449841e+02 
       7.400344204012e-02       6.662046417355e+02 
       7.706887398844e-02       6.152545815217e+02 
       8.014708509401e-02       5.612251415448e+02 
       8.325300109174e-02       5.067312944046e+02 
       8.639895906328e-02       4.543616176589e+02 
       8.959550316991e-02       4.064203256633e+02 
       9.285190948901e-02       3.646558856216e+02 
       9.617654348366e-02       3.301533790305e+02 
       9.957711002875e-02       3.033166402524e+02 
       1.030608321311e-01       2.839094823461e+02 
       1.066345809246e-01       2.711192742058e+02 
       1.103049715019e-01       2.636477540918e+02 
       1.140784342453e-01       2.597709768434e+02 
       1.179612682457e-01       2.574059323208e+02 
       1.219596814301e-01       2.543256059548e+02 
       1.260798207264e-01       2.484918354258e+02 
       1.303277947508e-01       2.384838740138e+02 
       1.347096909315e-01       2.239091631006e+02 
       1.392315886098e-01       2.055488893327e+02 
       1.438995694085e-01       1.851814562909e+02 
       1.487197259946e-01       1.650699007183e+02 
       1.536981702567e-01       1.473463080842e+02 
       1.588410418541e-01       1.334512031066e+02 
       1.641545180477e-01       1.239166765396e+02 
       1.696448257033e-01       1.183190742188e+02 
       1.753182563353e-01       1.154202264358e+02 
       1.811811850513e-01       1.134255804619e+02 
       1.872400942488e-01       1.104991103703e+02 
       1.935016029141e-01       1.052954668618e+02 
       1.999725023810e-01       9.758587363952e+01 
       2.066597994223e-01       8.839457642356e+01 
       2.135707675947e-01       7.940733907673e+01 
       2.207130078226e-01       7.202088901310e+01 
       2.280945193248e-01       6.678331767720e+01 
       2.357237821575e-01       6.343699530371e+01 
       2.436098528953e-01       6.108802899148e+01 
       2.517624753140e-01       5.851418384363e+01 
       2.601922084080e-01       5.492004144469e+01 
       2.689105747037e-01       5.046023163354e+01 
       2.779302326643e-01       4.592494843149e+01 
       2.872651780849e-01       4.213335907310e+01 
       2.969309808371e-01       3.938924290111e+01 
       3.069450652599e-01       3.726432065935e+01 
       3.173270450793e-01       3.513299210224e+01 
       3.280991272269e-01       3.266195037726e+01 
       3.392866036725e-01       3.000401495171e+01 
       3.509184569350e-01       2.762265509229e+01 
       3.630281140840e-01       2.568600625481e+01 
       3.756543970325e-01       2.401073845610e+01 
       3.888427356500e-01       2.229247366559e+01 
       4.026467377193e-01       2.054401355027e+01 
       4.171302508952e-01       1.891057794732e+01 
       4.323701146760e-01       1.746931576539e+01 
       4.484598986534e-01       1.613203384599e+01 
       4.655150808606e-01       1.481445613885e+01 
       4.836803799087e-01       1.355248137559e+01 
       5.031403969709e-01       1.240014720439e+01 
       5.241355039017e-01       1.129698186557e+01 
       5.469863461946e-01       1.023215538904e+01 
       5.721330816769e-01       9.226817771335e+00 
       6.002010446313e-01       8.257988992930e+00 
       6.321164740699e-01       7.319716638252e+00 
       6.693233218715e-01       6.402881335427e+00 
       7.142194122817e-01       5.497175150447e+00 
       7.711059886405e-01       4.586082486692e+00 
       8.484057365790e-01       3.654112848954e+00 
       9.637515319012e-01       2.692137789646e+00 
       1.150217270078e+00       1.754226007189e+00 
       1.433257013111e+00       1.023071059357e+00 
       1.803628967318e+00       5.783553729512e-01 
       2.270626591268e+00       3.244974462598e-01 
       2.858549502078e+00       1.809736557168e-01 
       3.598700609034e+00       1.003779699371e-01 
       4.530495646152e+00       5.539492389709e-02 
       5.703556096964e+00       3.043039066118e-02 
       7.180351708061e+00       1.664481661518e-02 
       9.039527230898e+00       9.068225486952e-03 
       1.138009054158e+01       4.922146710838e-03 
