# Matter power spectrum P(k) at redshift z=1
# for k=9.35944e-06 to 11.7986 h/Mpc,
# number of wavenumbers equal to 123
#    1:k (h/Mpc)              2:P (Mpc/h)^3        
       9.359435543475e-06       3.197998218301e+01 
       1.178283124573e-05       3.976188374514e+01 
       1.483370567813e-05       4.943734074088e+01 
       1.867452902928e-05       6.146699220973e+01 
       2.350983914824e-05       7.642353272617e+01 
       2.959713393092e-05       9.501875471218e+01 
       3.726058402191e-05       1.181373084578e+02 
       4.690829608347e-05       1.468783035703e+02 
       5.905404596345e-05       1.826067663538e+02 
       7.434463913264e-05       2.270168669398e+02 
       9.359435543475e-05       2.822090832472e+02 
       1.178283124573e-04       3.507833822107e+02 
       1.483370567813e-04       4.359497009555e+02 
       1.867452902928e-04       5.416550694779e+02 
       2.350983914824e-04       6.727224815834e+02 
       2.959713393092e-04       8.349886711915e+02 
       3.726058402191e-04       1.035414995890e+03 
       4.690829608347e-04       1.282128433316e+03 
       5.905404596345e-04       1.584335330059e+03 
       7.434463913264e-04       1.952052569531e+03 
       9.359435543475e-04       2.395611824155e+03 
       1.178283124573e-03       2.924813275143e+03 
       1.483370567813e-03       3.547351316264e+03 
       1.867452902928e-03       4.266239542291e+03 
       2.350983914824e-03       5.076649044461e+03 
       2.959713393092e-03       5.962271476401e+03 
       3.726058402191e-03       6.891884810748e+03 
       4.690829608347e-03       7.816582059072e+03 
       5.905404596345e-03       8.669058113392e+03 
       7.434463913264e-03       9.366210878440e+03 
       9.359435543475e-03       9.813470606356e+03 
       1.178283124573e-02       9.915066177143e+03 
       1.483370567813e-02       9.586693559941e+03 
       1.867452902800e-02       8.780464592556e+03 
       2.350983597288e-02       7.529296179192e+03 
       2.959597501697e-02       6.003659688806e+03 
       3.717255952314e-02       4.533215052080e+03 
       4.525550178284e-02       3.542694506654e+03 
       5.124544706636e-02       3.087276310694e+03 
       5.582497264064e-02       2.830916025063e+03 
       5.974964102087e-02       2.643202101798e+03 
       6.332677669318e-02       2.482555162490e+03 
       6.670402739888e-02       2.332525838790e+03 
       6.996401203897e-02       2.186432385263e+03 
       7.315829663511e-02       2.042116492579e+03 
       7.632180189027e-02       1.900038803553e+03 
       7.947974635808e-02       1.761944201292e+03 
       8.265133018850e-02       1.630188053045e+03 
       8.585183986194e-02       1.507252774525e+03 
       8.909392327229e-02       1.395331637954e+03 
       9.238839958169e-02       1.295796626952e+03 
       9.574479389598e-02       1.209332319936e+03 
       9.917170173139e-02       1.135769214942e+03 
       1.026770441053e-01       1.073984489207e+03 
       1.062682499757e-01       1.022159747133e+03 
       1.099523889978e-01       9.776919768556e+02 
       1.137362694238e-01       9.376979934555e+02 
       1.176265109875e-01       8.992538303156e+02 
       1.216295994950e-01       8.597930796690e+02 
       1.257519278329e-01       8.174319145639e+02 
       1.299998267969e-01       7.714265701758e+02 
       1.343795882778e-01       7.222783380510e+02 
       1.388974827655e-01       6.716610128591e+02 
       1.435597727500e-01       6.218211832569e+02 
       1.483727233406e-01       5.752075512683e+02 
       1.533426112620e-01       5.337672808872e+02 
       1.584757332759e-01       4.984677744067e+02 
       1.637784150119e-01       4.691465796629e+02 
       1.692570211446e-01       4.445373012504e+02 
       1.749179678346e-01       4.226655752956e+02 
       1.807677383248e-01       4.014574388319e+02 
       1.868129025812e-01       3.793251955787e+02 
       1.930601418526e-01       3.557496872004e+02 
       1.995162790268e-01       3.310784411956e+02 
       2.061883156638e-01       3.069000793251e+02 
       2.130834766118e-01       2.847489171126e+02 
       2.202092631495e-01       2.653827755026e+02 
       2.275735156777e-01       2.487692965670e+02 
       2.351844870976e-01       2.340183058970e+02 
       2.430509281975e-01       2.199473111722e+02 
       2.511821866198e-01       2.059462396800e+02 
       2.595883213423e-01       1.921018163063e+02 
       2.682802350927e-01       1.786574400682e+02 
       2.772698277661e-01       1.660504834192e+02 
       2.865701747843e-01       1.547467677999e+02 
       2.961957354792e-01       1.445594948269e+02 
       3.061625981004e-01       1.350119010294e+02 
       3.164887700566e-01       1.258692649486e+02 
       3.271945246887e-01       1.170313583081e+02 
       3.383028194942e-01       1.087008404259e+02 
       3.498398056536e-01       1.010307615645e+02 
       3.618354555193e-01       9.390829090792e+01 
       3.743243442389e-01       8.726763207125e+01 
       3.873466352041e-01       8.090385526889e+01 
       4.009493385050e-01       7.491174938392e+01 
       4.151879402114e-01       6.931333856583e+01 
       4.301285431659e-01       6.409404465367e+01 
       4.458507255107e-01       5.912079411271e+01 
       4.624514256927e-01       5.445183957860e+01 
       4.800503272100e-01       5.004794045348e+01 
       4.987974879456e-01       4.587375344564e+01 
       5.188844216725e-01       4.193414661639e+01 
       5.405606563327e-01       3.818703267527e+01 
       5.641592954333e-01       3.461932798876e+01 
       5.901379982097e-01       3.120461168028e+01 
       6.191476494501e-01       2.792285228879e+01 
       6.521535754197e-01       2.474394172210e+01 
       6.906630528721e-01       2.163427103629e+01 
       7.371839693657e-01       1.855928591795e+01 
       7.962255773212e-01       1.546533533136e+01 
       8.766393793671e-01       1.229789591061e+01 
       9.969679077222e-01       9.028239004107e+00 
       1.191661167987e+00       5.853308537181e+00 
       1.485897812732e+00       3.400193977405e+00 
       1.869953737606e+00       1.916371921871e+00 
       2.354125410506e+00       1.071635569699e+00 
       2.963668289766e+00       5.954376107436e-01 
       3.731037322113e+00       3.289322017318e-01 
       4.697097697160e+00       1.807483463699e-01 
       5.913295652635e+00       9.883610483117e-02 
       7.444398164554e+00       5.380450809398e-02 
       9.371942024871e+00       2.916748732991e-02 
       1.179857597297e+01       1.575168874326e-02 
