# Matter power spectrum P(k) at redshift z=0
# for k=8.53021e-06 to 10.7541 h/Mpc,
# number of wavenumbers equal to 123
#    1:k (h/Mpc)              2:P (Mpc/h)^3        
       8.530211119424e-06       6.250199478959e+01 
       1.073889954621e-05       7.808768047949e+01 
       1.351947353343e-05       9.755967707773e+01 
       1.702000878532e-05       1.218869315682e+02 
       2.142692156879e-05       1.522796554911e+02 
       2.697489605947e-05       1.902495704699e+02 
       3.395938212978e-05       2.376843484103e+02 
       4.275232913201e-05       2.969407964088e+02 
       5.382199355767e-05       3.709599832619e+02 
       6.775787540318e-05       4.634097392436e+02 
       8.530211119424e-05       5.788593510914e+02 
       1.073889954621e-04       7.229917718557e+02 
       1.351947353343e-04       9.028567767060e+02 
       1.702000878532e-04       1.127164734237e+03 
       2.142692156879e-04       1.406612067400e+03 
       2.697489605947e-04       1.754214148422e+03 
       3.395938212978e-04       2.185598557059e+03 
       4.275232913201e-04       2.719185847283e+03 
       5.382199355767e-04       3.376167547264e+03 
       6.775787540318e-04       4.180174090535e+03 
       8.530211119424e-04       5.156411556621e+03 
       1.073889954621e-03       6.329740513390e+03 
       1.351947353343e-03       7.721135145413e+03 
       1.702000878532e-03       9.342363216343e+03 
       2.142692156879e-03       1.118869992992e+04 
       2.697489605947e-03       1.323016509835e+04 
       3.395938212978e-03       1.540273375243e+04 
       4.275232913201e-03       1.759855285384e+04 
       5.382199355767e-03       1.966126869950e+04 
       6.775787540318e-03       2.138649742040e+04 
       8.530211119424e-03       2.251790324066e+04 
       1.073889954621e-02       2.277333495186e+04 
       1.351947353343e-02       2.187063993730e+04 
       1.702000878223e-02       1.961594549452e+04 
       2.142691550597e-02       1.608065886731e+04 
       2.697307790194e-02       1.184310264610e+04 
       3.384194886709e-02       8.053978207031e+03 
       4.088512165393e-02       5.947199345212e+03 
       4.600192330695e-02       5.214378799502e+03 
       4.997757455939e-02       4.911937456390e+03 
       5.341610883379e-02       4.740972241437e+03 
       5.656595855888e-02       4.602065556015e+03 
       5.954890379910e-02       4.452273155215e+03 
       6.243407871322e-02       4.271251058720e+03 
       6.526508965336e-02       4.051655867823e+03 
       6.807170783860e-02       3.795370390754e+03 
       7.087557478265e-02       3.509805671523e+03 
       7.369325818818e-02       3.207049602734e+03 
       7.653801095607e-02       2.901650049991e+03 
       7.942084317244e-02       2.607661332509e+03 
       8.235120627318e-02       2.337906823527e+03 
       8.533744654237e-02       2.102083840223e+03 
       8.838711526531e-02       1.906387695543e+03 
       9.150718639521e-02       1.753520633508e+03 
       9.470421256983e-02       1.642142205167e+03 
       9.798443883782e-02       1.567889351687e+03 
       1.013538866314e-01       1.523712120955e+03 
       1.048184163377e-01       1.499782217512e+03 
       1.083837741868e-01       1.484772502719e+03 
       1.120556274800e-01       1.465835423289e+03 
       1.158395910737e-01       1.431646793599e+03 
       1.197412473012e-01       1.374076777223e+03 
       1.237661610263e-01       1.290725277769e+03 
       1.279198911993e-01       1.186088862902e+03 
       1.322080000677e-01       1.070001079899e+03 
       1.366360610576e-01       9.551061929916e+02 
       1.412096662479e-01       8.536985476478e+02 
       1.459344343041e-01       7.739280750537e+02 
       1.508160197033e-01       7.189560439447e+02 
       1.558601240582e-01       6.865013011191e+02 
       1.610725103358e-01       6.694399185639e+02 
       1.664590207530e-01       6.576902950128e+02 
       1.720255991302e-01       6.407677881424e+02 
       1.777783184784e-01       6.106008314673e+02 
       1.837234146056e-01       5.659661339053e+02 
       1.898673265467e-01       5.127455862572e+02 
       1.962167446640e-01       4.607361486143e+02 
       2.027786673327e-01       4.178856764669e+02 
       2.095604672400e-01       3.875436120532e+02 
       2.165699684896e-01       3.684075383631e+02 
       2.238155359411e-01       3.550972248266e+02 
       2.313061785436e-01       3.402829179225e+02 
       2.390516688686e-01       3.194161829909e+02 
       2.470626816453e-01       2.933746855488e+02 
       2.553509548973e-01       2.668200951775e+02 
       2.639294783296e-01       2.447585782432e+02 
       2.728127150028e-01       2.289402268691e+02 
       2.820168641783e-01       2.167426234642e+02 
       2.915601756864e-01       2.045182662102e+02 
       3.014633294940e-01       1.900846265163e+02 
       3.117498986955e-01       1.745306074327e+02 
       3.224469204196e-01       1.606089427987e+02 
       3.335856079357e-01       1.493916403383e+02 
       3.452022497430e-01       1.397198349721e+02 
       3.573393594965e-01       1.297528896119e+02 
       3.700471672209e-01       1.195200655068e+02 
       3.833855821765e-01       1.099689850944e+02 
       3.974268189072e-01       1.015926115152e+02 
       4.122589739631e-01       9.385128857893e+01 
       4.279909952530e-01       8.613690623882e+01 
       4.447597418516e-01       7.875269481647e+01 
       4.627402697447e-01       7.205488143398e+01 
       4.821612551108e-01       6.561841702622e+01 
       5.033289003907e-01       5.938802468880e+01 
       5.266654422732e-01       5.351278892411e+01 
       5.527740381463e-01       4.783739558555e+01 
       5.825540560395e-01       4.233259163657e+01 
       6.174191333249e-01       3.694990421035e+01 
       6.597406790338e-01       3.161370155817e+01 
       7.138244001710e-01       2.624121746395e+01 
       7.882061670414e-01       2.072542485385e+01 
       9.007912805983e-01       1.504150823259e+01 
       1.083372896553e+00       9.611267647659e+00 
       1.354164473538e+00       5.554589629712e+00 
       1.704406171651e+00       3.133633354049e+00 
       2.145717004879e+00       1.755225512851e+00 
       2.701297659410e+00       9.772197407262e-01 
       3.400732268251e+00       5.410493414639e-01 
       4.281268271209e+00       2.980342489642e-01 
       5.389797421334e+00       1.634153283211e-01 
       6.785352938140e+00       8.921052562979e-02 
       8.542253241816e+00       4.850502863340e-02 
       1.075405968010e+01       2.627304956132e-02 
