# Matter power spectrum P(k) at redshift z=2
# for k=1.13553e-05 to 11.367 h/Mpc,
# number of wavenumbers equal to 122
#    1:k (h/Mpc)              2:P (Mpc/h)^3        
       1.135527312376e-05       8.392768309706e+00 
       1.429544189337e-05       1.044082061557e+01 
       1.799689507239e-05       1.298863997642e+01 
       2.265674854002e-05       1.615817021155e+01 
       2.852315648566e-05       2.010109877610e+01 
       3.590852652438e-05       2.500610326413e+01 
       4.520615654163e-05       3.110785262843e+01 
       5.691117923981e-05       3.869818075985e+01 
       7.164692976016e-05       4.813993784989e+01 
       9.019814055210e-05       5.988412694406e+01 
       1.135527312376e-04       7.449103850068e+01 
       1.429544189337e-04       9.265617611410e+01 
       1.799689507239e-04       1.152418002153e+02 
       2.265674854002e-04       1.433147989602e+02 
       2.852315648566e-04       1.781911764343e+02 
       3.590852652438e-04       2.214864702781e+02 
       4.520615654163e-04       2.751694687479e+02 
       5.691117923981e-04       3.416133197818e+02 
       7.164692976016e-04       4.236335515883e+02 
       9.019814055210e-04       5.244981315816e+02 
       1.135527312376e-03       6.478933355020e+02 
       1.429544189337e-03       7.978282693987e+02 
       1.799689507239e-03       9.784349150922e+02 
       2.265674854002e-03       1.193548538746e+03 
       2.852315648566e-03       1.445971500993e+03 
       3.590852652438e-03       1.736485054042e+03 
       4.520615654163e-03       2.062561916538e+03 
       5.691117923981e-03       2.416790874419e+03 
       7.164692976016e-03       2.785196452484e+03 
       9.019814055210e-03       3.145870742472e+03 
       1.135527312376e-02       3.467668558653e+03 
       1.429544189337e-02       3.711352998620e+03 
       1.799689507236e-02       3.832282873397e+03 
       2.265674837380e-02       3.789433633420e+03 
       2.852302724659e-02       3.563502864754e+03 
       3.589032783041e-02       3.182937323562e+03 
       4.459109068254e-02       2.755812289544e+03 
       5.196516456974e-02       2.461028584388e+03 
       5.730631766181e-02       2.282681005348e+03 
       6.170466195610e-02       2.151161730113e+03 
       6.562882920645e-02       2.041305484336e+03 
       6.928719251993e-02       1.942865614006e+03 
       7.278981735840e-02       1.851000454219e+03 
       7.620260393195e-02       1.763354458554e+03 
       7.956879239577e-02       1.678879334812e+03 
       8.291883048203e-02       1.597286634633e+03 
       8.627541820327e-02       1.518735212149e+03 
       8.965630830550e-02       1.443622806566e+03 
       9.307596434921e-02       1.372452425614e+03 
       9.654659439672e-02       1.305635008670e+03 
       1.000788231011e-01       1.243467661810e+03 
       1.036821440822e-01       1.186037773171e+03 
       1.073652332586e-01       1.133151199979e+03 
       1.111361710426e-01       1.084376006981e+03 
       1.150026029406e-01       1.039010819657e+03 
       1.189718573813e-01       9.962094975702e+02 
       1.230510331281e-01       9.550382748926e+02 
       1.272470646116e-01       9.146378971913e+02 
       1.315667709630e-01       8.743244952651e+02 
       1.360168928707e-01       8.337278273506e+02 
       1.406041202910e-01       7.928329670020e+02 
       1.453351133191e-01       7.520025899502e+02 
       1.502165180456e-01       7.118839342674e+02 
       1.552549788998e-01       6.732660403002e+02 
       1.604571487744e-01       6.368582438447e+02 
       1.658296980853e-01       6.031369278998e+02 
       1.713793238349e-01       5.721955959374e+02 
       1.771127596925e-01       5.437120364889e+02 
       1.830367880707e-01       5.170809563185e+02 
       1.891582551557e-01       4.915624420007e+02 
       1.954840898349e-01       4.665253076737e+02 
       2.020213274547e-01       4.416480847311e+02 
       2.087771393382e-01       4.170177296194e+02 
       2.157588689942e-01       3.929338115765e+02 
       2.229740759645e-01       3.700412567992e+02 
       2.304305882904e-01       3.487376027021e+02 
       2.381365646431e-01       3.290639251821e+02 
       2.461005672690e-01       3.107836886630e+02 
       2.543316470590e-01       2.934465944033e+02 
       2.628394422877e-01       2.766547045312e+02 
       2.716342929001e-01       2.603689026839e+02 
       2.807273726758e-01       2.447777866973e+02 
       2.901308422146e-01       2.299808501427e+02 
       2.998580265058e-01       2.160561047231e+02 
       3.099236219223e-01       2.030549196853e+02 
       3.203439389125e-01       1.907917319934e+02 
       3.311371885581e-01       1.790843732319e+02 
       3.423238236859e-01       1.679221880933e+02 
       3.539269486111e-01       1.572954576196e+02 
       3.659728161809e-01       1.472746601036e+02 
       3.784914370858e-01       1.378401676524e+02 
       3.915173351682e-01       1.288943819526e+02 
       4.050904948090e-01       1.204164083176e+02 
       4.192575641826e-01       1.123379308227e+02 
       4.340734039692e-01       1.047029498892e+02 
       4.496031094375e-01       9.746730789740e+01 
       4.659246918576e-01       9.060174583587e+01 
       4.831326951266e-01       8.405712321513e+01 
       5.013431662091e-01       7.784567685882e+01 
       5.207006307312e-01       7.192769005752e+01 
       5.413881162216e-01       6.627175463360e+01 
       5.636419455467e-01       6.086473371591e+01 
       5.877742514568e-01       5.567547734025e+01 
       6.142084800805e-01       5.067545330612e+01 
       6.435377417776e-01       4.583227745533e+01 
       6.766254862647e-01       4.111047547221e+01 
       7.147894427111e-01       3.646751300457e+01 
       7.601610727149e-01       3.185080751899e+01 
       8.164440084921e-01       2.718545012218e+01 
       8.906436116882e-01       2.237622948095e+01 
       9.971549790792e-01       1.732768363460e+01 
       1.165409211579e+00       1.211511744721e+01 
       1.433546443935e+00       7.470119319730e+00 
       1.801596371046e+00       4.337652261887e+00 
       2.268014827965e+00       2.484844462389e+00 
       2.855261270567e+00       1.411162402993e+00 
       3.594560970704e+00       7.952071467666e-01 
       4.525284150263e+00       4.449624838994e-01 
       5.696995212356e+00       2.473940458852e-01 
       7.172092043704e+00       1.367494368604e-01 
       9.029128929546e+00       7.518631816978e-02 
       1.136699985577e+01       4.113693686847e-02 
