# Matter power spectrum P(k) at redshift z=2
# for k=1.16255e-05 to 11.642 h/Mpc,
# number of wavenumbers equal to 122
#    1:k (h/Mpc)              2:P (Mpc/h)^3        
       1.162554682627e-05       4.718700588787e+00 
       1.463569632560e-05       5.916598745786e+00 
       1.842525002359e-05       7.418594576046e+00 
       2.319601547336e-05       9.301883423942e+00 
       2.920205333179e-05       1.166325258069e+01 
       3.676320701596e-05       1.462405411768e+01 
       4.628213553144e-05       1.833643013195e+01 
       5.826575653263e-05       2.299111479241e+01 
       7.335224153634e-05       2.882720183025e+01 
       9.234500088216e-05       3.614435956970e+01 
       1.162554682627e-04       4.531809116011e+01 
       1.463569632560e-04       5.681874633617e+01 
       1.842525002359e-04       7.123513557472e+01 
       2.319601547336e-04       8.930368497438e+01 
       2.920205333179e-04       1.119441222191e+02 
       3.676320701596e-04       1.403025586069e+02 
       4.628213553144e-04       1.758024062525e+02 
       5.826575653263e-04       2.202026432288e+02 
       7.335224153634e-04       2.756613773349e+02 
       9.234500088216e-04       3.448006090879e+02 
       1.162554682627e-03       4.307660260527e+02 
       1.463569632560e-03       5.372722905577e+02 
       1.842525002359e-03       6.685785194587e+02 
       2.319601547336e-03       8.294701849888e+02 
       2.920205333179e-03       1.024960484072e+03 
       3.676320701596e-03       1.259830862673e+03 
       4.628213553144e-03       1.537851636872e+03 
       5.826575653263e-03       1.860520326227e+03 
       7.335224153634e-03       2.225193618322e+03 
       9.234500088216e-03       2.622595939034e+03 
       1.162554682627e-02       3.033228093822e+03 
       1.463569632560e-02       3.424612075594e+03 
       1.842525001850e-02       3.749374831581e+03 
       2.319600645217e-02       3.950510073549e+03 
       2.919956866320e-02       3.980607862838e+03 
       3.661367921040e-02       3.840115897826e+03 
       4.407387112857e-02       3.639572427159e+03 
       4.946069881222e-02       3.497994447964e+03 
       5.367530841831e-02       3.393500556538e+03 
       5.733446961916e-02       3.305427029904e+03 
       6.069351403297e-02       3.224538050667e+03 
       6.387868929243e-02       3.146046492431e+03 
       6.696210896799e-02       3.067276141431e+03 
       6.998946474852e-02       2.986729679009e+03 
       7.299206101311e-02       2.903745984257e+03 
       7.599271855927e-02       2.818284371239e+03 
       7.900894963761e-02       2.730807077360e+03 
       8.205479139577e-02       2.642151896843e+03 
       8.514192609866e-02       2.553453092559e+03 
       8.828039757465e-02       2.465941962117e+03 
       9.147908693200e-02       2.380898113679e+03 
       9.474603837187e-02       2.299442425470e+03 
       9.808868811362e-02       2.222423750068e+03 
       1.015140286373e-01       2.150312934052e+03 
       1.050287284948e-01       2.083084596829e+03 
       1.086392208242e-01       2.020222329045e+03 
       1.123517693292e-01       1.960729140099e+03 
       1.161725177309e-01       1.903253856706e+03 
       1.201075269250e-01       1.846246500674e+03 
       1.241628029157e-01       1.788222250527e+03 
       1.283443178302e-01       1.728045654444e+03 
       1.326580258053e-01       1.665184042184e+03 
       1.371098751981e-01       1.599884816757e+03 
       1.417058183453e-01       1.533169066876e+03 
       1.464518199516e-01       1.466643435291e+03 
       1.513538650904e-01       1.402148612578e+03 
       1.564179677422e-01       1.341342029539e+03 
       1.616501807591e-01       1.285219259413e+03 
       1.670566081177e-01       1.233829352128e+03 
       1.726434203125e-01       1.186253246461e+03 
       1.784168737268e-01       1.140839620119e+03 
       1.843833348145e-01       1.095753147294e+03 
       1.905493099252e-01       1.049693342287e+03 
       1.969214816123e-01       1.002061798728e+03 
       2.035067522885e-01       9.535969831057e+02 
       2.103122961344e-01       9.060061569393e+02 
       2.173456202482e-01       8.610892820022e+02 
       2.246146361404e-01       8.197782288406e+02 
       2.321277428618e-01       7.818667224935e+02 
       2.398939233099e-01       7.463073798836e+02 
       2.479228556156e-01       7.116499053351e+02 
       2.562250419985e-01       6.768028889238e+02 
       2.648119581286e-01       6.418033918656e+02 
       2.736962268945e-01       6.076019663169e+02 
       2.828918216167e-01       5.752897130005e+02 
       2.924143052557e-01       5.454173833919e+02 
       3.022811141640e-01       5.175006065324e+02 
       3.125118976143e-01       4.904947350326e+02 
       3.231289279524e-01       4.638434055251e+02 
       3.341576011590e-01       4.377232266923e+02 
       3.456270544352e-01       4.128106615696e+02 
       3.575709369912e-01       3.894341206060e+02 
       3.700283838434e-01       3.672624817212e+02 
       3.830452621304e-01       3.457583768455e+02 
       3.966757884991e-01       3.248045853343e+02 
       4.109846597228e-01       3.047190440161e+02 
       4.260499056374e-01       2.856201686996e+02 
       4.419667785923e-01       2.672527632069e+02 
       4.588531630454e-01       2.494351547975e+02 
       4.768572700225e-01       2.322070979969e+02 
       4.961688627877e-01       2.156140913649e+02 
       5.170361158258e-01       1.994989965109e+02 
       5.397917934677e-01       1.837618670782e+02 
       5.648955073966e-01       1.683949700537e+02 
       5.930050974251e-01       1.532439383361e+02 
       6.251038311042e-01       1.381991692521e+02 
       6.627418141636e-01       1.230860727777e+02 
       7.085289104242e-01       1.076667644871e+02 
       7.672243896622e-01       9.160795741168e+01 
       8.483035575907e-01       7.448585279692e+01 
       9.716392019389e-01       5.603217205117e+01 
       1.171707455959e+00       3.749728246136e+01 
       1.465909455655e+00       2.290102218485e+01 
       1.845133748278e+00       1.362589062592e+01 
       2.322883161341e+00       8.010404947224e+00 
       2.924336637129e+00       4.660339720278e+00 
       3.681521705121e+00       2.686058807746e+00 
       4.634761228649e+00       1.535145317729e+00 
       5.834818688345e+00       8.707052288881e-01 
       7.345601519968e+00       4.904435949979e-01 
       9.247564418402e+00       2.745209927191e-01 
       1.164199384353e+01       1.527806562270e-01 
