# Matter power spectrum P(k) at redshift z=0.5
# for k=9.35944e-06 to 11.7986 h/Mpc,
# number of wavenumbers equal to 123
#    1:k (h/Mpc)              2:P (Mpc/h)^3        
       9.359435543475e-06       4.959822790922e+01 
       1.178283124573e-05       6.166729361256e+01 
       1.483370567813e-05       7.667307238639e+01 
       1.867452902928e-05       9.532999959938e+01 
       2.350983914824e-05       1.185262168934e+02 
       2.959713393092e-05       1.473656399111e+02 
       3.726058402191e-05       1.832201455615e+02 
       4.690829608347e-05       2.277942066509e+02 
       5.905404596345e-05       2.832044577289e+02 
       7.434463913264e-05       3.520776927447e+02 
       9.359435543475e-05       4.376701383562e+02 
       1.178283124573e-04       5.440113410762e+02 
       1.483370567813e-04       6.760743296112e+02 
       1.867452902928e-04       8.399706333624e+02 
       2.350983914824e-04       1.043162095121e+03 
       2.959713393092e-04       1.294669320426e+03 
       3.726058402191e-04       1.605238001888e+03 
       4.690829608347e-04       1.987402110173e+03 
       5.905404596345e-04       2.455368283261e+03 
       7.434463913264e-04       3.024648613687e+03 
       9.359435543475e-04       3.711340074945e+03 
       1.178283124573e-03       4.530737685793e+03 
       1.483370567813e-03       5.494731632240e+03 
       1.867452902928e-03       6.607966127121e+03 
       2.350983914824e-03       7.862980650889e+03 
       2.959713393092e-03       9.234505501810e+03 
       3.726058402191e-03       1.067418374224e+04 
       4.690829608347e-03       1.210627110569e+04 
       5.905404596345e-03       1.342584268683e+04 
       7.434463913264e-03       1.450612266909e+04 
       9.359435543475e-03       1.519857543687e+04 
       1.178283124573e-02       1.535581118472e+04 
       1.483370567813e-02       1.484760119273e+04 
       1.867452902800e-02       1.359890513901e+04 
       2.350983597288e-02       1.166100623488e+04 
       2.959597501697e-02       9.298289715284e+03 
       3.717255952314e-02       7.020849321986e+03 
       4.525550178284e-02       5.486806095345e+03 
       5.124544706636e-02       4.781472150150e+03 
       5.582497264064e-02       4.384325528019e+03 
       5.974964102087e-02       4.093646358029e+03 
       6.332677669318e-02       3.844900315565e+03 
       6.670402739888e-02       3.612497174639e+03 
       6.996401203897e-02       3.386268504609e+03 
       7.315829663511e-02       3.162708582038e+03 
       7.632180189027e-02       2.942657429510e+03 
       7.947974635808e-02       2.728829719854e+03 
       8.265133018850e-02       2.524757607982e+03 
       8.585183986194e-02       2.334388721162e+03 
       8.909392327229e-02       2.161015839968e+03 
       9.238839958169e-02       2.006897859857e+03 
       9.574479389598e-02       1.872983692724e+03 
       9.917170173139e-02       1.759035299842e+03 
       1.026770441053e-01       1.663354293326e+03 
       1.062682499757e-01       1.583090015443e+03 
       1.099523889978e-01       1.514214801862e+03 
       1.137362694238e-01       1.452259020489e+03 
       1.176265109875e-01       1.392734643855e+03 
       1.216295994950e-01       1.331599292891e+03 
       1.257519278329e-01       1.266012213390e+03 
       1.299998267969e-01       1.194762588354e+03 
       1.343795882778e-01       1.118645005042e+03 
       1.388974827655e-01       1.040226309619e+03 
       1.435597727500e-01       9.630319205281e+02 
       1.483727233406e-01       8.908580828598e+02 
       1.533426112620e-01       8.266678773853e+02 
       1.584757332759e-01       7.720139252721e+02 
       1.637784150119e-01       7.265867201978e+02 
       1.692570211446e-01       6.884815771570e+02 
       1.749179678346e-01       6.545970420091e+02 
       1.807677383248e-01       6.217525390591e+02 
       1.868129025812e-01       5.874730564482e+02 
       1.930601418526e-01       5.509699220127e+02 
       1.995162790268e-01       5.127505983930e+02 
       2.061883156638e-01       4.753128147525e+02 
       2.130834766118e-01       4.410082634682e+02 
       2.202092631495e-01       4.110094120174e+02 
       2.275735156777e-01       3.852861494145e+02 
       2.351844870976e-01       3.624320211037e+02 
       2.430509281975e-01       3.406395530385e+02 
       2.511821866198e-01       3.189594929155e+02 
       2.595883213423e-01       2.975184690808e+02 
       2.682802350927e-01       2.766943740753e+02 
       2.772698277661e-01       2.571695033007e+02 
       2.865701747843e-01       2.396611919757e+02 
       2.961957354792e-01       2.238872703859e+02 
       3.061625981004e-01       2.091016881588e+02 
       3.164887700566e-01       1.949386250731e+02 
       3.271945246887e-01       1.812547549553e+02 
       3.383028194942e-01       1.683525639520e+02 
       3.498398056536e-01       1.564717740997e+02 
       3.618354555193e-01       1.454407705193e+02 
       3.743243442389e-01       1.351539664102e+02 
       3.873466352041e-01       1.253014301653e+02 
       4.009493385050e-01       1.160210457850e+02 
       4.151879402114e-01       1.073479808472e+02 
       4.301285431659e-01       9.926464497114e+01 
       4.458507255107e-01       9.156449054134e+01 
       4.624514256927e-01       8.433338832839e+01 
       4.800503272100e-01       7.751271463392e+01 
       4.987974879456e-01       7.104625175223e+01 
       5.188844216725e-01       6.494484992380e+01 
       5.405606563327e-01       5.914157189700e+01 
       5.641592954333e-01       5.361614704404e+01 
       5.901379982097e-01       4.832766126762e+01 
       6.191476494501e-01       4.324509470173e+01 
       6.521535754197e-01       3.832267662295e+01 
       6.906630528721e-01       3.350573923488e+01 
       7.371839693657e-01       2.874339934895e+01 
       7.962255773212e-01       2.395168434752e+01 
       8.766393793671e-01       1.904619315571e+01 
       9.969679077222e-01       1.398252865499e+01 
       1.191661167987e+00       9.065422114025e+00 
       1.485897812732e+00       5.266117585406e+00 
       1.869953737606e+00       2.967999215146e+00 
       2.354125410506e+00       1.659715512227e+00 
       2.963668289766e+00       9.221739895247e-01 
       3.731037322113e+00       5.094350213769e-01 
       4.697097697160e+00       2.799358226541e-01 
       5.913295652635e+00       1.530704349234e-01 
       7.444398164554e+00       8.332952677420e-02 
       9.371942024871e+00       4.517224177553e-02 
       1.179857597297e+01       2.439486039308e-02 
