# Matter power spectrum P(k) at redshift z=0.5
# for k=1.1683e-05 to 11.6996 h/Mpc,
# number of wavenumbers equal to 122
#    1:k (h/Mpc)              2:P (Mpc/h)^3        
       1.168303036994e-05       2.372423322879e+01 
       1.470806381949e-05       2.950134431790e+01 
       1.851635530064e-05       3.668522586256e+01 
       2.331071022179e-05       4.561842462015e+01 
       2.934644546518e-05       5.672686453145e+01 
       3.694498594194e-05       7.054015097194e+01 
       4.651098164069e-05       8.771676809634e+01 
       5.855385671496e-05       1.090753436055e+02 
       7.371493817701e-05       1.356335353745e+02 
       9.280160889988e-05       1.686560864140e+02 
       1.168303036994e-04       2.097143608025e+02 
       1.470806381949e-04       2.607596934806e+02 
       1.851635530064e-04       3.242133554782e+02 
       2.331071022179e-04       4.030760696163e+02 
       2.934644546518e-04       5.010597023083e+02 
       3.694498594194e-04       6.227428002383e+02 
       4.651098164069e-04       7.737494485536e+02 
       5.855385671496e-04       9.609473537377e+02 
       7.371493817701e-04       1.192656385777e+03 
       9.280160889988e-04       1.478852869772e+03 
       1.168303036994e-03       1.831340761157e+03 
       1.470806381949e-03       2.263817320767e+03 
       1.851635530064e-03       2.791691828746e+03 
       2.331071022179e-03       3.431443605647e+03 
       2.934644546518e-03       4.199594280522e+03 
       3.694498594194e-03       5.110598417289e+03 
       4.651098164069e-03       6.173575813129e+03 
       5.855385671496e-03       7.387511181998e+03 
       7.371493817701e-03       8.734441844887e+03 
       9.280160889988e-03       1.017147261194e+04 
       1.168303036994e-02       1.162079313533e+04 
       1.470806381948e-02       1.296044631581e+04 
       1.851635529567e-02       1.402529232116e+04 
       2.331070136253e-02       1.462840918626e+04 
       2.934399027746e-02       1.462467497863e+04 
       3.679647008087e-02       1.402962184867e+04 
       4.430579182522e-02       1.322893996590e+04 
       4.973021229060e-02       1.265131557981e+04 
       5.397210484144e-02       1.221434317792e+04 
       5.765394315106e-02       1.184087497563e+04 
       6.103329063367e-02       1.149830812441e+04 
       6.423741883059e-02       1.116954959251e+04 
       6.733899376821e-02       1.084629726032e+04 
       7.038404210555e-02       1.052397545179e+04 
       7.340408970996e-02       1.020080887617e+04 
       7.642211410150e-02       9.876468228777e+03 
       7.945574474084e-02       9.552754505045e+03 
       8.251911062712e-02       9.231817287719e+03 
       8.562396895615e-02       8.916522450354e+03 
       8.878042685341e-02       8.609573518240e+03 
       9.199742054102e-02       8.313722348388e+03 
       9.528304347982e-02       8.030872963408e+03 
       9.864477691166e-02       7.761998164234e+03 
       1.020896552505e-01       7.507050979962e+03 
       1.056243867251e-01       7.264697126064e+03 
       1.092554425038e-01       7.032309551320e+03 
       1.129891231280e-01       6.806842701491e+03 
       1.168316083026e-01       6.584597350684e+03 
       1.207889943078e-01       6.362051903655e+03 
       1.248673221250e-01       6.136683374672e+03 
       1.290725985948e-01       5.907133064406e+03 
       1.334108124118e-01       5.674161883996e+03 
       1.378879464174e-01       5.439761826898e+03 
       1.425099874229e-01       5.207679868742e+03 
       1.472829346493e-01       4.982015813546e+03 
       1.522128077744e-01       4.766528739639e+03 
       1.573056555172e-01       4.563488869245e+03 
       1.625675656526e-01       4.373154695997e+03 
       1.680046773260e-01       4.193536553165e+03 
       1.736231965227e-01       4.021261816648e+03 
       1.794294155341e-01       3.852296297780e+03 
       1.854297372614e-01       3.683774338124e+03 
       1.916307051902e-01       3.514582454603e+03 
       1.980390398842e-01       3.346119937235e+03 
       2.046616828644e-01       3.181480590871e+03 
       2.115058487867e-01       3.024066159442e+03 
       2.185790869097e-01       2.876319468430e+03 
       2.258893529633e-01       2.737985827945e+03 
       2.334450927133e-01       2.606597072990e+03 
       2.412553387732e-01       2.479327972796e+03 
       2.493298225774e-01       2.354723329020e+03 
       2.576791039134e-01       2.232668802463e+03 
       2.663147210669e-01       2.114285043419e+03 
       2.752493654984e-01       2.001459922170e+03 
       2.844970861147e-01       1.895043940889e+03 
       2.940735297155e-01       1.794171702554e+03 
       3.039962262071e-01       1.697573391326e+03 
       3.142849298678e-01       1.603988705322e+03 
       3.249620315832e-01       1.513479540581e+03 
       3.360530619312e-01       1.427022701935e+03 
       3.475873118549e-01       1.344812941764e+03 
       3.595986072702e-01       1.266597646972e+03 
       3.721262876424e-01       1.191467614965e+03 
       3.852164583586e-01       1.119154930572e+03 
       3.989236158859e-01       1.049832975934e+03 
       4.133127885059e-01       9.836747085235e+02 
       4.284624026157e-01       9.202140466499e+02 
       4.444681901282e-01       8.591629785995e+02 
       4.614486226082e-01       8.004290951260e+02 
       4.795526399620e-01       7.438977927223e+02 
       4.989709249250e-01       6.893297521246e+02 
       5.199528334245e-01       6.364648807633e+02 
       5.428326805731e-01       5.850920407219e+02 
       5.680721649525e-01       5.349466079017e+02 
       5.963320181374e-01       4.856816949425e+02 
       6.285996559488e-01       4.368961202671e+02 
       6.664313853314e-01       3.880352809476e+02 
       7.124468092078e-01       3.383692641678e+02 
       7.714214420842e-01       2.868485945904e+02 
       8.528599996069e-01       2.321793989840e+02 
       9.766975159440e-01       1.736207229315e+02 
       1.177579303646e+00       1.152430016838e+02 
       1.473162768294e+00       6.968874200336e+01 
       1.854258066556e+00       4.104570463906e+01 
       2.334369926882e+00       2.388980519502e+01 
       2.938797618053e+00       1.376264259584e+01 
       3.699727001487e+00       7.855777277811e+00 
       4.657680338873e+00       4.447060970003e+00 
       5.863672138621e+00       2.498549323064e+00 
       7.381925861740e+00       1.394255804920e+00 
       9.293294055325e+00       7.732309017965e-01 
       1.169956404552e+01       4.264097479223e-01 
