# Matter power spectrum P(k) at redshift z=0
# for k=1.1683e-05 to 11.6996 h/Mpc,
# number of wavenumbers equal to 122
#    1:k (h/Mpc)              2:P (Mpc/h)^3        
       1.168303036994e-05       4.281442191226e+01 
       1.470806381949e-05       5.324020100298e+01 
       1.851635530064e-05       6.620473700470e+01 
       2.331071022179e-05       8.232620557302e+01 
       2.934644546518e-05       1.023732543289e+02 
       3.694498594194e-05       1.273016333187e+02 
       4.651098164069e-05       1.582996612292e+02 
       5.855385671496e-05       1.968446454593e+02 
       7.371493817701e-05       2.447730216315e+02 
       9.280160889988e-05       3.043670429815e+02 
       1.168303036994e-04       3.784621261875e+02 
       1.470806381949e-04       4.705790602236e+02 
       1.851635530064e-04       5.850860642935e+02 
       2.331071022179e-04       7.273958917179e+02 
       2.934644546518e-04       9.042026352456e+02 
       3.694498594194e-04       1.123761293841e+03 
       4.651098164069e-04       1.396209616191e+03 
       5.855385671496e-04       1.733926584971e+03 
       7.371493817701e-04       2.151914638785e+03 
       9.280160889988e-04       2.668179180250e+03 
       1.168303036994e-03       3.304038999130e+03 
       1.470806381949e-03       4.084216716305e+03 
       1.851635530064e-03       5.036500196872e+03 
       2.331071022179e-03       6.190623430633e+03 
       2.934644546518e-03       7.576389867845e+03 
       3.694498594194e-03       9.219876695484e+03 
       4.651098164069e-03       1.113753570315e+04 
       5.855385671496e-03       1.332755754489e+04 
       7.371493817701e-03       1.575744666848e+04 
       9.280160889988e-03       1.834992515207e+04 
       1.168303036994e-02       2.096418973298e+04 
       1.470806381948e-02       2.338127997726e+04 
       1.851635529567e-02       2.530246874963e+04 
       2.331070136253e-02       2.639037225856e+04 
       2.934399027746e-02       2.638380743015e+04 
       3.679647008087e-02       2.531028137273e+04 
       4.430579182522e-02       2.386573290724e+04 
       4.973021229060e-02       2.282378440066e+04 
       5.397210484144e-02       2.203534089343e+04 
       5.765394315106e-02       2.136171842701e+04 
       6.103329063367e-02       2.074353267749e+04 
       6.423741883059e-02       2.015049676641e+04 
       6.733899376821e-02       1.956741657368e+04 
       7.038404210555e-02       1.898588318746e+04 
       7.340408970996e-02       1.840281011673e+04 
       7.642211410150e-02       1.781780592813e+04 
       7.945574474084e-02       1.723380547269e+04 
       8.251911062712e-02       1.665475167198e+04 
       8.562396895615e-02       1.608593165550e+04 
       8.878042685341e-02       1.553215887549e+04 
       9.199742054102e-02       1.499847095815e+04 
       9.528304347982e-02       1.448818452086e+04 
       9.864477691166e-02       1.400313132625e+04 
       1.020896552505e-01       1.354321816809e+04 
       1.056243867251e-01       1.310591079920e+04 
       1.092554425038e-01       1.268675171123e+04 
       1.129891231280e-01       1.227995198202e+04 
       1.168316083026e-01       1.187903728594e+04 
       1.207889943078e-01       1.147754214680e+04 
       1.248673221250e-01       1.107092996647e+04 
       1.290725985948e-01       1.065685251793e+04 
       1.334108124118e-01       1.023645258126e+04 
       1.378879464174e-01       9.813656722204e+03 
       1.425099874229e-01       9.394927442211e+03 
       1.472829346493e-01       8.987832315584e+03 
       1.522128077744e-01       8.599087055123e+03 
       1.573056555172e-01       8.232804024263e+03 
       1.625675656526e-01       7.889434730257e+03 
       1.680046773260e-01       7.565389588873e+03 
       1.736231965227e-01       7.254596137008e+03 
       1.794294155341e-01       6.949782445506e+03 
       1.854297372614e-01       6.645716095084e+03 
       1.916307051902e-01       6.340474397136e+03 
       1.980390398842e-01       6.036577979985e+03 
       2.046616828644e-01       5.739576267002e+03 
       2.115058487867e-01       5.455617390674e+03 
       2.185790869097e-01       5.189044714189e+03 
       2.258893529633e-01       4.939479997228e+03 
       2.334450927133e-01       4.702444976293e+03 
       2.412553387732e-01       4.472840307834e+03 
       2.493298225774e-01       4.248062524060e+03 
       2.576791039134e-01       4.027865685059e+03 
       2.663147210669e-01       3.814286872036e+03 
       2.752493654984e-01       3.610748471683e+03 
       2.844970861147e-01       3.418746619913e+03 
       2.940735297155e-01       3.236793161240e+03 
       3.039962262071e-01       3.062523473780e+03 
       3.142849298678e-01       2.893690693206e+03 
       3.249620315832e-01       2.730400749304e+03 
       3.360530619312e-01       2.574419031162e+03 
       3.475873118549e-01       2.426131861789e+03 
       3.595986072702e-01       2.285012138705e+03 
       3.721262876424e-01       2.149478945766e+03 
       3.852164583586e-01       2.019017124631e+03 
       3.989236158859e-01       1.893954083876e+03 
       4.133127885059e-01       1.774603320329e+03 
       4.284624026157e-01       1.660116946910e+03 
       4.444681901282e-01       1.549977442417e+03 
       4.614486226082e-01       1.444018222350e+03 
       4.795526399620e-01       1.342032647069e+03 
       4.989709249250e-01       1.243588915900e+03 
       5.199528334245e-01       1.148217733306e+03 
       5.428326805731e-01       1.055538276009e+03 
       5.680721649525e-01       9.650731413917e+02 
       5.963320181374e-01       8.761964878393e+02 
       6.285996559488e-01       7.881846011748e+02 
       6.664313853314e-01       7.000369263094e+02 
       7.124468092078e-01       6.104366805490e+02 
       7.714214420842e-01       5.174905683602e+02 
       8.528599996069e-01       4.188643950159e+02 
       9.766975159440e-01       3.132213863721e+02 
       1.177579303646e+00       2.079059744996e+02 
       1.473162768294e+00       1.257224074771e+02 
       1.854258066556e+00       7.404847470962e+01 
       2.334369926882e+00       4.309853028239e+01 
       2.938797618053e+00       2.482874472282e+01 
       3.699727001487e+00       1.417230447427e+01 
       4.657680338873e+00       8.022743930421e+00 
       5.863672138621e+00       4.507549101232e+00 
       7.381925861740e+00       2.515323926091e+00 
       9.293294055325e+00       1.394939310018e+00 
       1.169956404552e+01       7.692655983005e-01 
