# Matter power spectrum P(k) at redshift z=2.5
# for k=8.9955e-06 to 11.3362 h/Mpc,
# number of wavenumbers equal to 123
#    1:k (h/Mpc)              2:P (Mpc/h)^3        
       8.995495213476e-06       1.219006132744e+01 
       1.132465751592e-05       1.513753791832e+01 
       1.425689912666e-05       1.879767972079e+01 
       1.794837260393e-05       2.334278452807e+01 
       2.259566237144e-05       2.898678996691e+01 
       2.844625355573e-05       3.599532693794e+01 
       3.581171147165e-05       4.469817476070e+01 
       4.508427361150e-05       5.550469710890e+01 
       5.675773772179e-05       6.892294344928e+01 
       7.145375833391e-05       8.558321390360e+01 
       8.995495213476e-05       1.062670555024e+02 
       1.132465751592e-04       1.319427179813e+02 
       1.425689912666e-04       1.638081269871e+02 
       1.794837260393e-04       2.033422043903e+02 
       2.259566237144e-04       2.523646922841e+02 
       2.844625355573e-04       3.131031210801e+02 
       3.581171147165e-04       3.882626106625e+02 
       4.508427361150e-04       4.810892626245e+02 
       5.675773772179e-04       5.954111064001e+02 
       7.145375833391e-04       7.356342766615e+02 
       8.995495213476e-04       9.066712266970e+02 
       1.132465751592e-03       1.113780003852e+03 
       1.425689912666e-03       1.362233856449e+03 
       1.794837260393e-03       1.656764116286e+03 
       2.259566237144e-03       2.000421239309e+03 
       2.844625355573e-03       2.393155469822e+03 
       3.581171147165e-03       2.829999456086e+03 
       4.508427361150e-03       3.298676407575e+03 
       5.675773772179e-03       3.777003477758e+03 
       7.145375833391e-03       4.230423627231e+03 
       8.995495213476e-03       4.609055124319e+03 
       1.132465751592e-02       4.848762015480e+03 
       1.425689912661e-02       4.875183922871e+03 
       1.794837235044e-02       4.623149986040e+03 
       2.259549572385e-02       4.078759813411e+03 
       2.842578360557e-02       3.339418611102e+03 
       3.520062870831e-02       2.661687765164e+03 
       4.074401006300e-02       2.301046903341e+03 
       4.479776737750e-02       2.124880113161e+03 
       4.816771981686e-02       2.014509369344e+03 
       5.118947213375e-02       1.930518947162e+03 
       5.401478213457e-02       1.856368466635e+03 
       5.672486261121e-02       1.783781988639e+03 
       5.936879476604e-02       1.708455647162e+03 
       6.197901036173e-02       1.628467975747e+03 
       6.457847422210e-02       1.543544548659e+03 
       6.718438673997e-02       1.454630131369e+03 
       6.981025245352e-02       1.363553766629e+03 
       7.246711104244e-02       1.272692314825e+03 
       7.516430792416e-02       1.184665144920e+03 
       7.790999697910e-02       1.101999635169e+03 
       8.071147987556e-02       1.026867062435e+03 
       8.357544163998e-02       9.608467972668e+02 
       8.650811802385e-02       9.047661825914e+02 
       8.951541665616e-02       8.586205643626e+02 
       9.260300603215e-02       8.215613207628e+02 
       9.577638158394e-02       7.919375877548e+02 
       9.904091508710e-02       7.674122236424e+02 
       1.024018917498e-01       7.451840302777e+02 
       1.058645380925e-01       7.223242054293e+02 
       1.094340429102e-01       6.962503066947e+02 
       1.131155730671e-01       6.652489437529e+02 
       1.169142855122e-01       6.289033478631e+02 
       1.208353366652e-01       5.882551405073e+02 
       1.248838901638e-01       5.455944964538e+02 
       1.290651238618e-01       5.038878901413e+02 
       1.333842369007e-01       4.660590549264e+02 
       1.378464576407e-01       4.342259386126e+02 
       1.424570532073e-01       4.091973431220e+02 
       1.472213413955e-01       3.903045743263e+02 
       1.521447056644e-01       3.755202061950e+02 
       1.572326139439e-01       3.621358713834e+02 
       1.624906419762e-01       3.473187095889e+02 
       1.679245019147e-01       3.291256834852e+02 
       1.735400769169e-01       3.075517887450e+02 
       1.793434624965e-01       2.844426088814e+02 
       1.853410154505e-01       2.624007904816e+02 
       1.915394112639e-01       2.435131381780e+02 
       1.979457110217e-01       2.286386193126e+02 
       2.045674390481e-01       2.171895566032e+02 
       2.114126727555e-01       2.072753261097e+02 
       2.184901465507e-01       1.967726327561e+02 
       2.258093721313e-01       1.846411590186e+02 
       2.333807781573e-01       1.713513464241e+02 
       2.412158731434e-01       1.584725361157e+02 
       2.493274365541e-01       1.475096291359e+02 
       2.577297445928e-01       1.386778112996e+02 
       2.664388391858e-01       1.309933007494e+02 
       2.754728513595e-01       1.232224139570e+02 
       2.848523938747e-01       1.148196299035e+02 
       2.946010430149e-01       1.064031289114e+02 
       3.047459364298e-01       9.884112872333e+01 
       3.153185238299e-01       9.238555264791e+01 
       3.263555215295e-01       8.642462474537e+01 
       3.379001425649e-01       8.040210820486e+01 
       3.500037049488e-01       7.440425723736e+01 
       3.627277674288e-01       6.887392125731e+01 
       3.761470147665e-01       6.387034570664e+01 
       3.903532301304e-01       5.909961224301e+01 
       4.054608811529e-01       5.439082343619e+01 
       4.216151646875e-01       4.994212856356e+01 
       4.390039108171e-01       4.580063559339e+01 
       4.578757537428e-01       4.176637266274e+01 
       4.785688846265e-01       3.788479512152e+01 
       5.015584986070e-01       3.417033826042e+01 
       5.275390469698e-01       3.053294102589e+01 
       5.575753615681e-01       2.698151154113e+01 
       5.933999117674e-01       2.344887369345e+01 
       6.380445209754e-01       1.989238301736e+01 
       6.972897783650e-01       1.623610998454e+01 
       7.830801656828e-01       1.241735452362e+01 
       9.195197250467e-01       8.526630016945e+00 
       1.135081494730e+00       5.167697048833e+00 
       1.427166889585e+00       2.970631832899e+00 
       1.796666020950e+00       1.687682102566e+00 
       2.261868410916e+00       9.512201989456e-01 
       2.847523620593e+00       5.322905207511e-01 
       3.584819846648e+00       2.959246804256e-01 
       4.513020801650e+00       1.635410660622e-01 
       5.681556571152e+00       8.988823546742e-02 
       7.152655945970e+00       4.915918581821e-02 
       9.004660332202e+00       2.676167811698e-02 
       1.133619571678e+01       1.450651378730e-02 
