# Matter power spectrum P(k) at redshift z=1.5
# for k=1.10313e-05 to 11.0465 h/Mpc,
# number of wavenumbers equal to 122
#    1:k (h/Mpc)              2:P (Mpc/h)^3        
       1.103130177793e-05       8.613966157044e+00 
       1.388758613341e-05       1.081116188633e+01 
       1.748343509183e-05       1.356878808185e+01 
       2.201034072256e-05       1.702977761559e+01 
       2.770937725788e-05       2.137350316679e+01 
       3.488403917493e-05       2.682504738770e+01 
       4.391640338335e-05       3.366683422091e+01 
       5.528747621390e-05       4.225316001869e+01 
       6.960280875964e-05       5.302839602051e+01 
       8.762474467976e-05       6.654963725257e+01 
       1.103130177793e-04       8.351486284574e+01 
       1.388758613341e-04       1.047976686949e+02 
       1.748343509183e-04       1.314897122849e+02 
       2.201034072256e-04       1.649517257959e+02 
       2.770937725788e-04       2.068732259037e+02 
       3.488403917493e-04       2.593393529626e+02 
       4.391640338335e-04       3.249000698053e+02 
       5.528747621390e-04       4.066317989725e+02 
       6.960280875964e-04       5.081750954624e+02 
       8.762474467976e-04       6.337270700544e+02 
       1.103130177793e-03       7.879675351799e+02 
       1.388758613341e-03       9.758906398456e+02 
       1.748343509183e-03       1.202454456895e+03 
       2.201034072256e-03       1.471877076950e+03 
       2.770937725788e-03       1.786549262389e+03 
       3.488403917493e-03       2.145653068904e+03 
       4.391640338335e-03       2.543437051415e+03 
       5.528747621390e-03       2.967351175067e+03 
       6.960280875964e-03       3.396317317521e+03 
       8.762474467976e-03       3.799773829352e+03 
       1.103130177793e-02       4.137302737202e+03 
       1.388758613341e-02       4.360966553908e+03 
       1.748343509183e-02       4.419682550902e+03 
       2.201034071037e-02       4.270380031433e+03 
       2.770935909248e-02       3.899439352764e+03 
       3.487969181549e-02       3.353154273137e+03 
       4.368381077686e-02       2.763286216748e+03 
       5.225359012317e-02       2.343735479298e+03 
       5.840047865148e-02       2.121332744133e+03 
       6.326439732560e-02       1.975026126429e+03 
       6.751319372126e-02       1.859525728161e+03 
       7.142682092049e-02       1.758399236206e+03 
       7.514567124368e-02       1.664611420505e+03 
       7.875074955390e-02       1.574820660563e+03 
       8.229376296977e-02       1.487784281083e+03 
       8.581034192081e-02       1.403310214979e+03 
       8.932658300761e-02       1.321842760310e+03 
       9.286259142316e-02       1.244165532725e+03 
       9.643453734175e-02       1.171103754581e+03 
       1.000559176795e-01       1.103412122998e+03 
       1.037383658540e-01       1.041654394681e+03 
       1.074921909935e-01       9.860409177182e+02 
       1.113267481058e-01       9.364224668271e+02 
       1.152506986724e-01       8.922623468818e+02 
       1.192721979050e-01       8.526514517105e+02 
       1.233990315106e-01       8.164415265119e+02 
       1.276387168221e-01       7.823202491633e+02 
       1.319985782263e-01       7.490212663766e+02 
       1.364858037152e-01       7.154695901543e+02 
       1.411074873824e-01       6.809852785940e+02 
       1.458706613707e-01       6.454034079883e+02 
       1.507823199105e-01       6.090933356696e+02 
       1.558494375077e-01       5.728394415859e+02 
       1.610789829532e-01       5.377319065986e+02 
       1.664779305754e-01       5.048187144004e+02 
       1.720532699847e-01       4.748871941163e+02 
       1.778120154596e-01       4.482419622825e+02 
       1.837612160511e-01       4.246239017262e+02 
       1.899079674431e-01       4.033161420174e+02 
       1.962594265809e-01       3.833374473403e+02 
       2.028228300596e-01       3.637451337327e+02 
       2.096055172563e-01       3.439392055955e+02 
       2.166149591805e-01       3.238427571840e+02 
       2.238587940183e-01       3.037685685360e+02 
       2.313448703558e-01       2.845308729518e+02 
       2.390812990972e-01       2.667920083128e+02 
       2.470765151463e-01       2.507781121272e+02 
       2.553393500158e-01       2.363090718682e+02 
       2.638791166755e-01       2.228632078670e+02 
       2.727057081690e-01       2.098608337819e+02 
       2.818297118387e-01       1.971153708802e+02 
       2.912625414306e-01       1.847913250422e+02 
       3.010165899323e-01       1.730406647306e+02 
       3.111054067778e-01       1.620201486946e+02 
       3.215439040862e-01       1.518850977140e+02 
       3.323485979706e-01       1.424688712273e+02 
       3.435378927598e-01       1.335111880192e+02 
       3.551324183830e-01       1.249529971587e+02 
       3.671554343848e-01       1.167724444938e+02 
       3.796333183859e-01       1.090705350755e+02 
       3.925961627488e-01       1.018847635781e+02 
       4.060785114303e-01       9.511056010662e+01 
       4.201202805466e-01       8.872100400268e+01 
       4.347679226283e-01       8.262066629489e+01 
       4.500759183845e-01       7.686870211200e+01 
       4.661087149737e-01       7.144655449935e+01 
       4.829432827099e-01       6.632995814443e+01 
       5.006725435006e-01       6.144993857220e+01 
       5.194100523904e-01       5.684032681651e+01 
       5.392965204987e-01       5.246284330829e+01 
       5.605091118152e-01       4.829129363136e+01 
       5.832750377384e-01       4.432242060821e+01 
       6.078920275204e-01       4.052607138680e+01 
       6.347602117909e-01       3.688413369084e+01 
       6.644337722432e-01       3.337257423152e+01 
       6.977085529066e-01       2.996812544455e+01 
       7.357789538581e-01       2.663966987772e+01 
       7.805374253423e-01       2.335291071851e+01 
       8.351900186187e-01       2.006105797838e+01 
       9.056260775891e-01       1.670548435352e+01 
       1.003652786797e+00       1.321433829436e+01 
       1.153998195863e+00       9.575276866963e+00 
       1.397719545294e+00       6.115730990283e+00 
       1.750972050179e+00       3.579227430501e+00 
       2.204064667843e+00       2.053333922226e+00 
       2.774751147551e+00       1.168371540117e+00 
       3.493204729044e+00       6.601017834108e-01 
       4.397684201993e+00       3.705408828868e-01 
       5.536356394934e+00       2.067803651620e-01 
       6.969859754332e+00       1.147719379547e-01 
       8.774533561370e+00       6.339012306054e-02 
       1.104648327705e+01       3.485238609742e-02 
