# Matter power spectrum P(k) at redshift z=2.5
# for k=1.17885e-05 to 11.8024 h/Mpc,
# number of wavenumbers equal to 122
#    1:k (h/Mpc)              2:P (Mpc/h)^3        
       1.178851293999e-05       5.219877671651e+00 
       1.484085850741e-05       6.494559617210e+00 
       1.868353390783e-05       8.080509062858e+00 
       2.352117561868e-05       1.005372883059e+01 
       2.961140570163e-05       1.250877264406e+01 
       3.727855111673e-05       1.556326765056e+01 
       4.693091531572e-05       1.936353234615e+01 
       5.908252188972e-05       2.409155082657e+01 
       7.438048819985e-05       2.997361948777e+01 
       9.363948673645e-05       3.729104255014e+01 
       1.178851293999e-04       4.639332131803e+01 
       1.484085850741e-04       5.771432686924e+01 
       1.868353390783e-04       7.179196314272e+01 
       2.352117561868e-04       8.929174157779e+01 
       2.961140570163e-04       1.110344002036e+02 
       3.727855111673e-04       1.380270385196e+02 
       4.693091531572e-04       1.714959008910e+02 
       5.908252188972e-04       2.129166357973e+02 
       7.438048819985e-04       2.640344875932e+02 
       9.363948673645e-04       3.268633373472e+02 
       1.178851293999e-03       4.036513024066e+02 
       1.484085850741e-03       4.968029399722e+02 
       1.868353390783e-03       6.087408010570e+02 
       2.352117561868e-03       7.416425089257e+02 
       2.961140570163e-03       8.969597238684e+02 
       3.727855111673e-03       1.074766795402e+03 
       4.693091531572e-03       1.272978583451e+03 
       5.908252188972e-03       1.486417373327e+03 
       7.438048819985e-03       1.705878587090e+03 
       9.363948673645e-03       1.917463501614e+03 
       1.178851293999e-02       2.102130856188e+03 
       1.484085850741e-02       2.236470803594e+03 
       1.868353390782e-02       2.294767852387e+03 
       2.352117556621e-02       2.254096526360e+03 
       2.961135052877e-02       2.104530373863e+03 
       3.726861591876e-02       1.863483445299e+03 
       4.651387321723e-02       1.591134029785e+03 
       5.487941009680e-02       1.394744273809e+03 
       6.087368220346e-02       1.280363745199e+03 
       6.572230007797e-02       1.198917317970e+03 
       7.000752383224e-02       1.132265940704e+03 
       7.398084825752e-02       1.073343969517e+03 
       7.777199070612e-02       1.018927236526e+03 
       8.145730964934e-02       9.674490269164e+02 
       8.508627473335e-02       9.182116335498e+02 
       8.869337265601e-02       8.709855113851e+02 
       9.230410333960e-02       8.258307960902e+02 
       9.593827032538e-02       7.829333307917e+02 
       9.961191120922e-02       7.425282443971e+02 
       1.033384922694e-01       7.048209634478e+02 
       1.071296805114e-01       6.699231574980e+02 
       1.109958607330e-01       6.378322788770e+02 
       1.149464921852e-01       6.083911849277e+02 
       1.189903606409e-01       5.813057594508e+02 
       1.231357600945e-01       5.561511341148e+02 
       1.273906257931e-01       5.324241173956e+02 
       1.317626327799e-01       5.095978616824e+02 
       1.362592694776e-01       4.871937095597e+02 
       1.408878928888e-01       4.648591023370e+02 
       1.456557700839e-01       4.424103973650e+02 
       1.505701093924e-01       4.198786079030e+02 
       1.556380838819e-01       3.974873351748e+02 
       1.608668491589e-01       3.756039735448e+02 
       1.662635571512e-01       3.546508643590e+02 
       1.718353672961e-01       3.349918662547e+02 
       1.775894563939e-01       3.168491341627e+02 
       1.835330282909e-01       3.002330709611e+02 
       1.896733244884e-01       2.849347934733e+02 
       1.960176367369e-01       2.706105408298e+02 
       2.025733226506e-01       2.568675595617e+02 
       2.093478253577e-01       2.433875415502e+02 
       2.163486981944e-01       2.300306953020e+02 
       2.235836354416e-01       2.168700117895e+02 
       2.310605101076e-01       2.040736018313e+02 
       2.387874197705e-01       1.919512284000e+02 
       2.467727415310e-01       1.807146206090e+02 
       2.550251971847e-01       1.703373094816e+02 
       2.635539298326e-01       1.606723121447e+02 
       2.723685933072e-01       1.515043247603e+02 
       2.814794560331e-01       1.426357937270e+02 
       2.908975212777e-01       1.340564802674e+02 
       3.006346662142e-01       1.258824490640e+02 
       3.107038028516e-01       1.181583365997e+02 
       3.211190647224e-01       1.108899154065e+02 
       3.318960243384e-01       1.040991370820e+02 
       3.430519478965e-01       9.770099085163e+01 
       3.546060956652e-01       9.159652863659e+01 
       3.665800790815e-01       8.579523725500e+01 
       3.789982890640e-01       8.029138443159e+01 
       3.918884147587e-01       7.510230157577e+01 
       4.052820783831e-01       7.022322747468e+01 
       4.192156207784e-01       6.559807033283e+01 
       4.337310848720e-01       6.122630995976e+01 
       4.488774622424e-01       5.706834201209e+01 
       4.647122941387e-01       5.314341112800e+01 
       4.813037570223e-01       4.942818935738e+01 
       4.987334211720e-01       4.590914544246e+01 
       5.170999611336e-01       4.255853161830e+01 
       5.365242394604e-01       3.938636561670e+01 
       5.571564167989e-01       3.636611670194e+01 
       5.791861287184e-01       3.348576812193e+01 
       6.028574393637e-01       3.073847580366e+01 
       6.284914840429e-01       2.810615381160e+01 
       6.565219639625e-01       2.557498687295e+01 
       6.875530803460e-01       2.312931485247e+01 
       7.224586795639e-01       2.075161592352e+01 
       7.625616655992e-01       1.842035800396e+01 
       8.099806946761e-01       1.611078486448e+01 
       8.683526256862e-01       1.378777494899e+01 
       9.444615231873e-01       1.140749339781e+01 
       1.052095515927e+00       8.919039119829e+00 
       1.219886604306e+00       6.337603073211e+00 
       1.490249473277e+00       3.962259511942e+00 
       1.870667316057e+00       2.302389842692e+00 
       2.354896643181e+00       1.316527158561e+00 
       2.964638556257e+00       7.464152563587e-01 
       3.732258814754e+00       4.199809931605e-01 
       4.698635465287e+00       2.346832640362e-01 
       5.915231588007e+00       1.303227809349e-01 
       7.446835362789e+00       7.195759524727e-02 
       9.375010275663e+00       3.952405183271e-02 
       1.180243867186e+01       2.160562647489e-02 
