# Matter power spectrum P(k) at redshift z=2.5
# for k=9.88293e-06 to 12.4591 h/Mpc,
# number of wavenumbers equal to 123
#    1:k (h/Mpc)              2:P (Mpc/h)^3        
       9.882933491091e-06       9.746518376142e+00 
       1.244187611501e-05       1.208143634806e+01 
       1.566339401158e-05       1.497569864039e+01 
       1.971904475612e-05       1.856328027565e+01 
       2.482480653978e-05       2.301023143217e+01 
       3.125257979581e-05       2.852233375912e+01 
       3.934466688906e-05       3.535457807684e+01 
       4.953200096522e-05       4.382286486053e+01 
       6.235709471213e-05       5.431842502037e+01 
       7.850293113875e-05       6.732553133243e+01 
       9.882933491091e-05       8.344313339399e+01 
       1.244187611501e-04       1.034110456951e+02 
       1.566339401158e-04       1.281412017406e+02 
       1.971904475612e-04       1.587540563943e+02 
       2.482480653978e-04       1.966192642589e+02 
       3.125257979581e-04       2.433978074439e+02 
       3.934466688906e-04       3.010792004539e+02 
       4.953200096522e-04       3.720017499642e+02 
       6.235709471213e-04       4.588366641963e+02 
       7.850293113875e-04       5.645117577875e+02 
       9.882933491091e-04       6.920553538511e+02 
       1.244187611501e-03       8.443561218547e+02 
       1.566339401158e-03       1.023816063614e+03 
       1.971904475612e-03       1.231755149968e+03 
       2.482480653978e-03       1.467428465341e+03 
       3.125257979581e-03       1.726961525179e+03 
       3.934466688906e-03       2.002323535145e+03 
       4.953200096522e-03       2.280287734143e+03 
       6.235709471213e-03       2.541857118414e+03 
       7.850293113875e-03       2.762483184480e+03 
       9.882933491091e-03       2.912641563961e+03 
       1.244187611501e-02       2.960399471098e+03 
       1.566339401158e-02       2.874995849415e+03 
       1.971904475383e-02       2.635561647519e+03 
       2.482480152400e-02       2.247652959630e+03 
       3.125093449230e-02       1.765961191269e+03 
       3.923021489788e-02       1.305332935656e+03 
       4.756718756958e-02       1.011982260313e+03 
       5.367308691591e-02       8.873772473173e+02 
       5.838243016760e-02       8.218379036626e+02 
       6.243876261004e-02       7.760469741518e+02 
       6.614611766118e-02       7.371038294252e+02 
       6.965217183622e-02       6.996821785369e+02 
       7.304021305434e-02       6.614686967441e+02 
       7.636252402076e-02       6.216932908010e+02 
       7.965466761539e-02       5.805046564700e+02 
       8.294241804847e-02       5.386234205653e+02 
       8.624545726908e-02       4.970954780931e+02 
       8.957949547798e-02       4.570924331854e+02 
       9.295755992722e-02       4.197314887379e+02 
       9.639081564386e-02       3.859586059721e+02 
       9.988910845717e-02       3.564316229729e+02 
       1.034613358227e-01       3.314759200532e+02 
       1.071157067461e-01       3.110635138683e+02 
       1.108599279010e-01       2.948053445138e+02 
       1.147013391914e-01       2.820106001959e+02 
       1.186470137885e-01       2.717294928761e+02 
       1.227038326432e-01       2.628207725135e+02 
       1.268785403104e-01       2.541069550177e+02 
       1.311777868877e-01       2.445238580826e+02 
       1.356081595438e-01       2.333055299859e+02 
       1.401762062337e-01       2.201498038903e+02 
       1.448884536099e-01       2.053078862112e+02 
       1.497514207549e-01       1.895231539569e+02 
       1.547716300973e-01       1.738446982504e+02 
       1.599556167082e-01       1.593551079601e+02 
       1.653099370659e-01       1.469024555562e+02 
       1.708411783069e-01       1.368835862058e+02 
       1.765559689401e-01       1.292048477010e+02 
       1.824609919737e-01       1.232962967210e+02 
       1.885630013868e-01       1.182662356758e+02 
       1.948688428661e-01       1.131724622623e+02 
       2.013854797210e-01       1.072978861718e+02 
       2.081200248888e-01       1.003997395017e+02 
       2.150797799493e-01       9.285983521906e+01 
       2.222722820912e-01       8.537381679691e+01 
       2.297053600191e-01       7.867911822996e+01 
       2.373871998690e-01       7.318619601144e+01 
       2.453264223305e-01       6.878818200913e+01 
       2.535321723594e-01       6.503617750967e+01 
       2.620142231430e-01       6.145381596775e+01 
       2.707830963543e-01       5.768828737469e+01 
       2.798502012518e-01       5.364094369023e+01 
       2.892279958690e-01       4.958821200146e+01 
       2.989301744587e-01       4.591762303244e+01 
       3.089718865684e-01       4.277404270790e+01 
       3.193699947309e-01       4.006626651762e+01 
       3.301433798834e-01       3.753507005347e+01 
       3.413133064800e-01       3.497189024478e+01 
       3.529038631002e-01       3.242983765650e+01 
       3.649424995975e-01       3.003343719087e+01 
       3.774606890606e-01       2.788936773279e+01 
       3.904947529811e-01       2.595784107561e+01 
       4.040869024031e-01       2.410887456690e+01 
       4.182865686104e-01       2.230946092960e+01 
       4.331521274468e-01       2.061262824124e+01 
       4.487531671611e-01       1.905380081237e+01 
       4.651735197598e-01       1.759006689080e+01 
       4.825153856773e-01       1.619649310166e+01 
       5.009050580975e-01       1.487921208565e+01 
       5.205010452167e-01       1.363497463167e+01 
       5.415058872220e-01       1.246224299300e+01 
       5.641838469628e-01       1.134288236910e+01 
       5.888882792018e-01       1.027872000608e+01 
       6.161056210261e-01       9.260812456437e+00 
       6.465293265891e-01       8.280527671517e+00 
       6.811908376196e-01       7.331281148262e+00 
       7.217064220260e-01       6.403341975846e+00 
       7.707771752187e-01       5.483478196773e+00 
       8.332853716553e-01       4.558017199532e+00 
       9.188663725865e-01       3.609184529496e+00 
       1.047724972158e+00       2.630681896773e+00 
       1.256537023836e+00       1.689617821757e+00 
       1.568959160764e+00       9.764911696771e-01 
       1.974645150142e+00       5.491977517985e-01 
       2.485925867563e+00       3.064977191484e-01 
       3.129595238576e+00       1.699479176295e-01 
       3.939926974472e+00       9.368074369808e-02 
       4.960074188777e+00       5.136269839444e-02 
       6.244363440635e+00       2.802218509849e-02 
       7.861187815894e+00       1.521888534055e-02 
       9.896649108316e+00       8.230648124148e-03 
       1.245914305407e+01       4.433999940664e-03 
