# Matter power spectrum P(k) at redshift z=0.5
# for k=7.46735e-06 to 11.8478 h/Mpc,
# number of wavenumbers equal to 124
#    1:k (h/Mpc)              2:P (Mpc/h)^3        
       7.467351644259e-06       9.738949804577e+01 
       9.400838743760e-06       1.214565333145e+02 
       1.183495478670e-05       1.514709661652e+02 
       1.489932532841e-05       1.889020346088e+02 
       1.875713927452e-05       2.355821496891e+02 
       2.361383928526e-05       2.937957948561e+02 
       2.972806234624e-05       3.663909864983e+02 
       3.742541313108e-05       4.569174014328e+02 
       4.711580363761e-05       5.697976326163e+02 
       5.931528249650e-05       7.105388140742e+02 
       7.467351644259e-05       8.859924992143e+02 
       9.400838743760e-05       1.104670973240e+03 
       1.183495478670e-04       1.377126794148e+03 
       1.489932532841e-04       1.716397504155e+03 
       1.875713927452e-04       2.138507006279e+03 
       2.361383928526e-04       2.662994923611e+03 
       2.972806234624e-04       3.313413063537e+03 
       3.742541313108e-04       4.117687454111e+03 
       4.711580363761e-04       5.108211411533e+03 
       5.931528249650e-04       6.321521270852e+03 
       7.467351644259e-04       7.797321271730e+03 
       9.400838743760e-04       9.576219346635e+03 
       1.183495478670e-03       1.169491780596e+04 
       1.489932532841e-03       1.417910069299e+04 
       1.875713927452e-03       1.703262627748e+04 
       2.361383928526e-03       2.022432381699e+04 
       2.972806234624e-03       2.367289945235e+04 
       3.742541313108e-03       2.722879491449e+04 
       4.711580363761e-03       3.065809181233e+04 
       5.931528249650e-03       3.363764869472e+04 
       7.467351644259e-03       3.573437697522e+04 
       9.400838743760e-03       3.644150070937e+04 
       1.183495478669e-02       3.522070454528e+04 
       1.489932526526e-02       3.169799202590e+04 
       1.875708281903e-02       2.601911121751e+04 
       2.360493228521e-02       1.929832365038e+04 
       2.939498292394e-02       1.370626677308e+04 
       3.445248433672e-02       1.103938840608e+04 
       3.809324589809e-02       1.002253486781e+04 
       4.106704240359e-02       9.523991816630e+03 
       4.370886202657e-02       9.204857557517e+03 
       4.616563250685e-02       8.931302405597e+03 
       4.851411754439e-02       8.640098144939e+03 
       5.079992024581e-02       8.298783844702e+03 
       5.305278788534e-02       7.894652291647e+03 
       5.529357019165e-02       7.428043916181e+03 
       5.753775216640e-02       6.911418228648e+03 
       5.979740480724e-02       6.362715810244e+03 
       6.208233521245e-02       5.805938887862e+03 
       6.440080113832e-02       5.265255471253e+03 
       6.675997429481e-02       4.763258062601e+03 
       6.916625146435e-02       4.318691116522e+03 
       7.162546958184e-02       3.943365392241e+03 
       7.414305801789e-02       3.644036151314e+03 
       7.672414850959e-02       3.419782576182e+03 
       7.937365573673e-02       3.264399415794e+03 
       8.209633705705e-02       3.165709140251e+03 
       8.489683713388e-02       3.106316847330e+03 
       8.777972142321e-02       3.065433421465e+03 
       9.074950134361e-02       3.020047912933e+03 
       9.381065319963e-02       2.948006780528e+03 
       9.696763243076e-02       2.833725610863e+03 
       1.002248844252e-01       2.671510691689e+03 
       1.035868529168e-01       2.468254403085e+03 
       1.070579868379e-01       2.241293902068e+03 
       1.106427464056e-01       2.014518319197e+03 
       1.143456091606e-01       1.811354898832e+03 
       1.181710766365e-01       1.648786123784e+03 
       1.221236823175e-01       1.534162256530e+03 
       1.262080015246e-01       1.464093186140e+03 
       1.304286638634e-01       1.425588078384e+03 
       1.347903688561e-01       1.399623817135e+03 
       1.392979053805e-01       1.363909397123e+03 
       1.439561755391e-01       1.301555264160e+03 
       1.487702235891e-01       1.209628832091e+03 
       1.537452705885e-01       1.099795181298e+03 
       1.588867554523e-01       9.910319530313e+02 
       1.642003831820e-01       9.000084893457e+02 
       1.696921811363e-01       8.356562149037e+02 
       1.753685643608e-01       7.960313800585e+02 
       1.812364112166e-01       7.689106800369e+02 
       1.873031508376e-01       7.384732230773e+02 
       1.935768643545e-01       6.947021807883e+02 
       2.000664023533e-01       6.384399014458e+02 
       2.067815217488e-01       5.805186238979e+02 
       2.137330461872e-01       5.328800106991e+02 
       2.209330553363e-01       4.991031677544e+02 
       2.283951100711e-01       4.740963307930e+02 
       2.361345227804e-01       4.487714202920e+02 
       2.441686850210e-01       4.174899527305e+02 
       2.525174688633e-01       3.831997759073e+02 
       2.612037239871e-01       3.523692630668e+02 
       2.702539006397e-01       3.283859196851e+02 
       2.796988400975e-01       3.079190974422e+02 
       2.895747910506e-01       2.866270880305e+02 
       2.999247352101e-01       2.638475357658e+02 
       3.108001430759e-01       2.426373190183e+02 
       3.222633390039e-01       2.245062515674e+02 
       3.343907469090e-01       2.078071420656e+02 
       3.472774379899e-01       1.906590930430e+02 
       3.610436534445e-01       1.742619285880e+02 
       3.758444114134e-01       1.595568360255e+02 
       3.918840930785e-01       1.452564421914e+02 
       4.094393798358e-01       1.313235483583e+02 
       4.288968287070e-01       1.182579444381e+02 
       4.508174550095e-01       1.054662581372e+02 
       4.760541975663e-01       9.305991650123e+01 
       5.059802618551e-01       8.080404796796e+01 
       5.429681163691e-01       6.857616531218e+01 
       5.914761576256e-01       5.611965642708e+01 
       6.606205961071e-01       4.322456850946e+01 
       7.691954606802e-01       3.006619779433e+01 
       9.432330213441e-01       1.836755928308e+01 
       1.184827388156e+00       1.050484287380e+01 
       1.491552308418e+00       5.931011967460e+00 
       1.877752857444e+00       3.325277482665e+00 
       2.363950789150e+00       1.852754334976e+00 
       2.976037720692e+00       1.026301805576e+00 
       3.746609513037e+00       5.655272116813e-01 
       4.716701924032e+00       3.101282153982e-01 
       5.937975912022e+00       1.692976954668e-01 
       7.475468770266e+00       9.203711044546e-02 
       9.411057599962e+00       4.984058412214e-02 
       1.184781956445e+01       2.689116822603e-02 
