# Matter power spectrum P(k) at redshift z=2.5
# for k=1.09433e-05 to 10.9582 h/Mpc,
# number of wavenumbers equal to 122
#    1:k (h/Mpc)              2:P (Mpc/h)^3        
       1.094329135660e-05       4.713301464282e+00 
       1.377678757749e-05       5.916363692396e+00 
       1.734394797419e-05       7.426502067734e+00 
       2.183473684554e-05       9.322093141830e+00 
       2.748830507469e-05       1.170151383461e+01 
       3.460572578567e-05       1.468824295785e+01 
       4.356602758517e-05       1.843725891781e+01 
       5.484637921789e-05       2.314306242857e+01 
       6.904750054230e-05       2.904972765622e+01 
       8.692565305358e-05       3.646348596183e+01 
       1.094329135660e-04       4.576844963641e+01 
       1.377678757749e-04       5.744621229403e+01 
       1.734394797419e-04       7.210017888310e+01 
       2.183473684554e-04       9.048557202335e+01 
       2.748830507469e-04       1.135460605657e+02 
       3.460572578567e-04       1.424577499118e+02 
       4.356602758517e-04       1.786806779344e+02 
       5.484637921789e-04       2.240167128777e+02 
       6.904750054230e-04       2.806706610268e+02 
       8.692565305358e-04       3.513086456092e+02 
       1.094329135660e-03       4.391052912425e+02 
       1.377678757749e-03       5.477655249155e+02 
       1.734394797419e-03       6.814780464410e+02 
       2.183473684554e-03       8.448637066020e+02 
       2.748830507469e-03       1.042577388519e+03 
       3.460572578567e-03       1.278766264144e+03 
       4.356602758517e-03       1.556178925789e+03 
       5.484637921789e-03       1.874766389731e+03 
       6.904750054230e-03       2.229696800437e+03 
       8.692565305358e-03       2.608786765654e+03 
       1.094329135660e-02       2.989011731063e+03 
       1.377678757749e-02       3.333844363217e+03 
       1.734394797265e-02       3.592262711842e+03 
       2.183473326005e-02       3.705679922184e+03 
       2.748706241912e-02       3.630814359925e+03 
       3.451527184582e-02       3.382585495546e+03 
       4.193941512892e-02       3.097344747025e+03 
       4.740830234501e-02       2.918362713878e+03 
       5.160727548271e-02       2.800981086549e+03 
       5.521468066342e-02       2.709734224856e+03 
       5.850707088073e-02       2.630214790375e+03 
       6.161801881126e-02       2.555340256397e+03 
       6.462255367175e-02       2.481199027405e+03 
       6.756763501503e-02       2.405595613469e+03 
       7.048513225562e-02       2.327458904636e+03 
       7.339810027978e-02       2.246549530103e+03 
       7.632411736312e-02       2.163285338909e+03 
       7.927719605055e-02       2.078597154992e+03 
       8.226894261371e-02       1.993773117460e+03 
       8.530929440729e-02       1.910321976624e+03 
       8.840700719178e-02       1.829789261076e+03 
       9.156998761051e-02       1.753592982292e+03 
       9.480552605730e-02       1.682848532763e+03 
       9.812046331854e-02       1.618232912457e+03 
       1.015213118905e-01       1.559871980469e+03 
       1.050143454726e-01       1.507295501071e+03 
       1.086056656100e-01       1.459448619840e+03 
       1.123012516149e-01       1.414775711895e+03 
       1.161069980690e-01       1.371413968043e+03 
       1.200287430170e-01       1.327446019424e+03 
       1.240722891708e-01       1.281252919219e+03 
       1.282434199226e-01       1.231847394303e+03 
       1.325479116110e-01       1.179130375872e+03 
       1.369915432564e-01       1.123973312400e+03 
       1.415801048291e-01       1.068070278041e+03 
       1.463194050160e-01       1.013566310274e+03 
       1.512152793900e-01       9.625646778028e+02 
       1.562735998488e-01       9.165796499349e+02 
       1.615002861646e-01       8.760764486286e+02 
       1.669013204706e-01       8.403767912276e+02 
       1.724827655012e-01       8.077329961420e+02 
       1.782507873946e-01       7.760330575926e+02 
       1.842116838652e-01       7.432231895848e+02 
       1.903719185603e-01       7.080834871282e+02 
       1.967381624357e-01       6.709822390334e+02 
       2.033173430240e-01       6.336592227052e+02 
       2.101167025388e-01       5.982669658562e+02 
       2.171438658725e-01       5.663294569173e+02 
       2.244069197077e-01       5.382522094180e+02 
       2.319145042044e-01       5.131672971844e+02 
       2.396759190567e-01       4.893017002991e+02 
       2.477012461658e-01       4.650040883988e+02 
       2.560014917826e-01       4.397681380785e+02 
       2.645887517795e-01       4.143538112100e+02 
       2.734764047764e-01       3.902121977747e+02 
       2.826793392565e-01       3.684651921195e+02 
       2.922142226788e-01       3.489288229646e+02 
       3.020998230927e-01       3.304845776131e+02 
       3.123573971341e-01       3.120893825759e+02 
       3.230111628740e-01       2.935707775456e+02 
       3.340888823302e-01       2.757166394507e+02 
       3.456225873237e-01       2.592214265434e+02 
       3.576494949566e-01       2.440315229036e+02 
       3.702131771794e-01       2.294199433490e+02 
       3.833650756375e-01       2.149983678002e+02 
       3.971664930240e-01       2.010392569417e+02 
       4.116912534108e-01       1.879358155486e+02 
       4.270293199081e-01       1.755379354660e+02 
       4.432918119864e-01       1.635022008438e+02 
       4.606181192145e-01       1.518015795729e+02 
       4.791862420981e-01       1.406295409176e+02 
       4.992282577283e-01       1.298785268074e+02 
       5.210542196200e-01       1.193627599214e+02 
       5.450905211051e-01       1.091570134405e+02 
       5.719442729350e-01       9.915868238054e+01 
       6.025171357806e-01       8.926597576152e+01 
       6.382193986468e-01       7.939944349978e+01 
       6.814025539633e-01       6.940088024593e+01 
       7.363053910541e-01       5.907401517206e+01 
       8.112701919732e-01       4.816405380774e+01 
       9.237825458539e-01       3.648195019052e+01 
       1.105977416281e+00       2.463333750430e+01 
       1.380005702256e+00       1.502903027304e+01 
       1.736764678001e+00       8.889886564772e+00 
       2.186451806058e+00       5.198042631438e+00 
       2.752579731384e+00       3.009927481761e+00 
       3.465292571828e+00       1.727688892338e+00 
       4.362544877975e+00       9.838646367932e-01 
       5.492118606976e+00       5.562705909389e-01 
       6.914167678909e+00       3.124709372400e-01 
       8.704421392385e+00       1.744839210329e-01 
       1.095821728584e+01       9.690207093240e-02 
