# Matter power spectrum P(k) at redshift z=2
# for k=9.02773e-06 to 11.3801 h/Mpc,
# number of wavenumbers equal to 123
#    1:k (h/Mpc)              2:P (Mpc/h)^3        
       9.027730535539e-06       1.453820501663e+01 
       1.136523938202e-05       1.820621638291e+01 
       1.430798866915e-05       2.279963822856e+01 
       1.801269052725e-05       2.855191058655e+01 
       2.267663383955e-05       3.575532768565e+01 
       2.854819059456e-05       4.477584523897e+01 
       3.594004260023e-05       5.607156939101e+01 
       4.524583293039e-05       7.021585130752e+01 
       5.696112885387e-05       8.792601244225e+01 
       7.170981259861e-05       1.100989965915e+02 
       9.027730535539e-05       1.378553653787e+02 
       1.136523938202e-04       1.725930929008e+02 
       1.430798866915e-04       2.160524134965e+02 
       1.801269052725e-04       2.703921326489e+02 
       2.267663383955e-04       3.382758320501e+02 
       2.854819059456e-04       4.229623268688e+02 
       3.594004260023e-04       5.283873819841e+02 
       4.524583293039e-04       6.592123365197e+02 
       5.696112885387e-04       8.208019319130e+02 
       7.170981259861e-04       1.019086963458e+03 
       9.027730535539e-04       1.260280185556e+03 
       1.136523938202e-03       1.550427817266e+03 
       1.430798866915e-03       1.894681191674e+03 
       1.801269052726e-03       2.295945744649e+03 
       2.267663383955e-03       2.752870848085e+03 
       2.854819059456e-03       3.257759574796e+03 
       3.594004260023e-03       3.794382183045e+03 
       4.524583293039e-03       4.335803321984e+03 
       5.696112885387e-03       4.843160820609e+03 
       7.170981259861e-03       5.265910124013e+03 
       9.027730535539e-03       5.542630158189e+03 
       1.136523938202e-02       5.605695106650e+03 
       1.430798866915e-02       5.388266726576e+03 
       1.801269052629e-02       4.843910617341e+03 
       2.267663128902e-02       3.986456615626e+03 
       2.854721364348e-02       2.946238356404e+03 
       3.586283493758e-02       1.991105973244e+03 
       4.373700033414e-02       1.427067832956e+03 
       4.960773598616e-02       1.230380889658e+03 
       5.407837735864e-02       1.154273358752e+03 
       5.790080667780e-02       1.113530074971e+03 
       6.138033536651e-02       1.081361533938e+03 
       6.466291537291e-02       1.046591402735e+03 
       6.782992415787e-02       1.004103121987e+03 
       7.093202051753e-02       9.521242243271e+02 
       7.400344204012e-02       8.910748770361e+02 
       7.706887398844e-02       8.229243909748e+02 
       8.014708509401e-02       7.506429084178e+02 
       8.325300109174e-02       6.777724788395e+02 
       8.639895906328e-02       6.077230542397e+02 
       8.959550316991e-02       5.436014297118e+02 
       9.285190948901e-02       4.877402389884e+02 
       9.617654348366e-02       4.415909847273e+02 
       9.957711002875e-02       4.056968323335e+02 
       1.030608321311e-01       3.797379806968e+02 
       1.066345809246e-01       3.626306964428e+02 
       1.103049715019e-01       3.526390708311e+02 
       1.140784342453e-01       3.474515496037e+02 
       1.179612682457e-01       3.442892209815e+02 
       1.219596814301e-01       3.401704250611e+02 
       1.260798207264e-01       3.323674640492e+02 
       1.303277947508e-01       3.189811839143e+02 
       1.347096909315e-01       2.994869958419e+02 
       1.392315886098e-01       2.749296768163e+02 
       1.438995694085e-01       2.476869573590e+02 
       1.487197259946e-01       2.207871449155e+02 
       1.536981702567e-01       1.970814201274e+02 
       1.588410418541e-01       1.784945909838e+02 
       1.641545180477e-01       1.657431943765e+02 
       1.696448257033e-01       1.582563671079e+02 
       1.753182563353e-01       1.543778930740e+02 
       1.811811850513e-01       1.517110755918e+02 
       1.872400942488e-01       1.477968049857e+02 
       1.935016029141e-01       1.408366059396e+02 
       1.999725023810e-01       1.305248950710e+02 
       2.066597994223e-01       1.182311472798e+02 
       2.135707675947e-01       1.062103598771e+02 
       2.207130078226e-01       9.633074729067e+01 
       2.280945193248e-01       8.932522179024e+01 
       2.357237821575e-01       8.484941077787e+01 
       2.436098528953e-01       8.170746718989e+01 
       2.517624753140e-01       7.826486479159e+01 
       2.601922084080e-01       7.345767317131e+01 
       2.689105747037e-01       6.749245784557e+01 
       2.779302326643e-01       6.142640462757e+01 
       2.872651780849e-01       5.635497869460e+01 
       2.969309808371e-01       5.268464361148e+01 
       3.069450652599e-01       4.984248318017e+01 
       3.173270450793e-01       4.699172102111e+01 
       3.280991272269e-01       4.368659373955e+01 
       3.392866036725e-01       4.013153903684e+01 
       3.509184569350e-01       3.694629103567e+01 
       3.630281140840e-01       3.435600054116e+01 
       3.756543970325e-01       3.211529815581e+01 
       3.888427356500e-01       2.981699245527e+01 
       4.026467377193e-01       2.747839440354e+01 
       4.171302508952e-01       2.529358154984e+01 
       4.323701146760e-01       2.336580699360e+01 
       4.484598986534e-01       2.157722309686e+01 
       4.655150808606e-01       1.981491000426e+01 
       4.836803799087e-01       1.812696882572e+01 
       5.031403969709e-01       1.658567846858e+01 
       5.241355039017e-01       1.511015255537e+01 
       5.469863461946e-01       1.368590577622e+01 
       5.721330816769e-01       1.234119467828e+01 
       6.002010446313e-01       1.104535654004e+01 
       6.321164740699e-01       9.790404008193e+00 
       6.693233218715e-01       8.564101088332e+00 
       7.142194122817e-01       7.352683789130e+00 
       7.711059886405e-01       6.134062657910e+00 
       8.484057365790e-01       4.887511719864e+00 
       9.637515319012e-01       3.600837805068e+00 
       1.150217270078e+00       2.346341154232e+00 
       1.433257013111e+00       1.368394110478e+00 
       1.803628967318e+00       7.735710589997e-01 
       2.270626591268e+00       4.340266027160e-01 
       2.858549502078e+00       2.420575331079e-01 
       3.598700609034e+00       1.342584115661e-01 
       4.530495646152e+00       7.409199585668e-02 
       5.703556096964e+00       4.070122532983e-02 
       7.180351708061e+00       2.226260775453e-02 
       9.039527230898e+00       1.212855999857e-02 
       1.138009054158e+01       6.583205611915e-03 
