# Matter power spectrum P(k) at redshift z=2
# for k=8.07007e-06 to 10.1713 h/Mpc,
# number of wavenumbers equal to 123
#    1:k (h/Mpc)              2:P (Mpc/h)^3        
       8.070071608455e-06       2.223305575940e+01 
       1.015961822288e-05       2.782324150016e+01 
       1.279020155491e-05       3.481893483254e+01 
       1.610190975945e-05       4.357344208629e+01 
       2.027110337459e-05       5.452882751323e+01 
       2.551980716338e-05       6.823813359315e+01 
       3.212753374206e-05       8.539310803473e+01 
       4.044616864616e-05       1.068587622502e+02 
       5.091870951836e-05       1.337162412845e+02 
       6.410285734843e-05       1.673158986662e+02 
       8.070071608455e-05       2.093423298851e+02 
       1.015961822288e-04       2.618933200430e+02 
       1.279020155491e-04       3.275736929023e+02 
       1.610190975945e-04       4.096032509278e+02 
       2.027110337459e-04       5.119337881228e+02 
       2.551980716338e-04       6.393619796411e+02 
       3.212753374206e-04       7.976108602010e+02 
       4.044616864616e-04       9.933321762116e+02 
       5.091870951836e-04       1.233960624733e+03 
       6.410285734843e-04       1.527349317134e+03 
       8.070071608455e-04       1.881157488409e+03 
       1.015961822288e-03       2.301996614882e+03 
       1.279020155491e-03       2.794148869878e+03 
       1.610190975945e-03       3.357318225774e+03 
       2.027110337459e-03       3.983653526527e+03 
       2.551980716338e-03       4.655172033643e+03 
       3.212753374206e-03       5.341588497639e+03 
       4.044616864616e-03       5.999130076475e+03 
       5.091870951836e-03       6.571740737747e+03 
       6.410285734843e-03       6.994850925375e+03 
       8.070071608455e-03       7.200264239884e+03 
       1.015961822288e-02       7.124856480032e+03 
       1.279020155491e-02       6.719474538078e+03 
       1.610190975917e-02       5.966817507981e+03 
       2.027110239176e-02       4.913081868154e+03 
       2.551933773394e-02       3.708398564934e+03 
       3.208309079099e-02       2.612689649240e+03 
       3.940834237085e-02       1.914914280364e+03 
       4.505313992887e-02       1.632288927089e+03 
       4.927632624487e-02       1.498281628661e+03 
       5.284755196889e-02       1.407546730211e+03 
       5.607907967502e-02       1.329538539017e+03 
       5.911681783615e-02       1.253104866130e+03 
       6.204078235281e-02       1.174178362114e+03 
       6.490018977376e-02       1.092081809796e+03 
       6.772799863501e-02       1.007970669847e+03 
       7.054779706387e-02       9.239886144432e+02 
       7.337740943952e-02       8.426868073233e+02 
       7.623093612306e-02       7.665306731637e+02 
       7.911997911300e-02       6.976316702724e+02 
       8.205441535555e-02       6.374833690104e+02 
       8.504290451113e-02       5.868325577933e+02 
       8.809323351783e-02       5.457093275038e+02 
       9.121255685556e-02       5.134352044352e+02 
       9.440756786214e-02       4.886967950441e+02 
       9.768462309906e-02       4.696604677417e+02 
       1.010498338982e-01       4.541481690788e+02 
       1.045091344342e-01       4.397904460785e+02 
       1.080683326744e-01       4.243820250721e+02 
       1.117331486410e-01       4.062128158798e+02 
       1.155092431744e-01       3.843917397802e+02 
       1.194022395632e-01       3.590643347922e+02 
       1.234177398557e-01       3.313462246936e+02 
       1.275613373089e-01       3.030696106764e+02 
       1.318386261831e-01       2.762762073957e+02 
       1.362552099352e-01       2.527342579795e+02 
       1.408167087610e-01       2.334515868334e+02 
       1.455287673698e-01       2.185685074108e+02 
       1.503970638360e-01       2.073344191272e+02 
       1.554273203465e-01       1.983435969402e+02 
       1.606253166467e-01       1.899584326518e+02 
       1.659969069751e-01       1.807116379002e+02 
       1.715480412728e-01       1.699076152279e+02 
       1.772847914480e-01       1.575887083088e+02 
       1.832133834839e-01       1.449091953848e+02 
       1.893402361906e-01       1.331298584419e+02 
       1.956720074402e-01       1.230849802692e+02 
       2.022156487830e-01       1.149782102906e+02 
       2.089784694449e-01       1.082974651552e+02 
       2.159682108526e-01       1.021365709874e+02 
       2.231931330555e-01       9.589984616571e+01 
       2.306621147119e-01       8.944229217381e+01 
       2.383847687260e-01       8.287063180269e+01 
       2.463715761770e-01       7.659724518407e+01 
       2.546340419233e-01       7.109755030145e+01 
       2.631848762459e-01       6.634466201200e+01 
       2.720382081917e-01       6.201236759923e+01 
       2.812098379955e-01       5.785279203216e+01 
       2.907175382553e-01       5.371319913039e+01 
       3.005814166231e-01       4.975316207089e+01 
       3.108243569688e-01       4.612873582697e+01 
       3.214725617607e-01       4.282874752308e+01 
       3.325562264660e-01       3.980075213087e+01 
       3.441103882030e-01       3.686616441820e+01 
       3.561760073145e-01       3.407980656433e+01 
       3.688013646154e-01       3.148578173777e+01 
       3.820438930030e-01       2.909768331901e+01 
       3.959726168791e-01       2.681704232578e+01 
       4.106714581864e-01       2.467562338755e+01 
       4.262438042616e-01       2.266127827568e+01 
       4.428189568652e-01       2.075430282920e+01 
       4.605614617297e-01       1.896161342805e+01 
       4.796849850290e-01       1.725756239565e+01 
       5.004736213401e-01       1.563966155777e+01 
       5.233158441252e-01       1.409420414799e+01 
       5.487609849235e-01       1.261321418306e+01 
       5.776180814799e-01       1.118288023906e+01 
       6.111395467914e-01       9.788326414550e+00 
       6.513871773455e-01       8.415693437286e+00 
       7.020210186724e-01       7.040225264660e+00 
       7.701294325776e-01       5.639239906906e+00 
       8.704895663648e-01       4.195581322983e+00 
       1.031853396817e+00       2.771947389952e+00 
       1.281357868797e+00       1.625339727472e+00 
       1.612060959642e+00       9.167219521035e-01 
       2.029450717584e+00       5.128950628300e-01 
       2.554927047954e+00       2.852911447843e-01 
       3.216462585939e+00       1.578445848846e-01 
       4.049286485524e+00       8.690533631822e-02 
       5.097749656261e+00       4.763366603522e-02 
       6.417686585232e+00       2.599920844289e-02 
       8.079388727079e+00       1.413633550626e-02 
       1.017134778028e+01       7.658370450390e-03 
