# Matter power spectrum P(k) at redshift z=1.5
# for k=1.09496e-05 to 10.9642 h/Mpc,
# number of wavenumbers equal to 122
#    1:k (h/Mpc)              2:P (Mpc/h)^3        
       1.094958308929e-05       7.295896322256e+00 
       1.378470839966e-05       9.153107733527e+00 
       1.735391969851e-05       1.148305612849e+01 
       2.184729050268e-05       1.440609802620e+01 
       2.750410919268e-05       1.807318388488e+01 
       3.462562199142e-05       2.267366649499e+01 
       4.359107542418e-05       2.844508540307e+01 
       5.487791257894e-05       3.568536135497e+01 
       6.908719869184e-05       4.476811251993e+01 
       8.697563006284e-05       5.616177961086e+01 
       1.094958308929e-04       7.045348597381e+01 
       1.378470839966e-04       8.837869455216e+01 
       1.735391969851e-04       1.108578853212e+02 
       2.184729050268e-04       1.390415224561e+02 
       2.750410919268e-04       1.743644632333e+02 
       3.462562199142e-04       2.186104255846e+02 
       4.359107542418e-04       2.739859092554e+02 
       5.487791257894e-04       3.432007336539e+02 
       6.908719869184e-04       4.295491018113e+02 
       8.697563006284e-04       5.369815720318e+02 
       1.094958308929e-03       6.701550600171e+02 
       1.378470839966e-03       8.344391364031e+02 
       1.735391969851e-03       1.035822375317e+03 
       2.184729050268e-03       1.280606684256e+03 
       2.750410919268e-03       1.574813762798e+03 
       3.462562199142e-03       1.923286245752e+03 
       4.359107542418e-03       2.328210909592e+03 
       5.487791257894e-03       2.787093958937e+03 
       6.908719869184e-03       3.290099287378e+03 
       8.697563006284e-03       3.816921991619e+03 
       1.094958308929e-02       4.333322686849e+03 
       1.378470839966e-02       4.788894220337e+03 
       1.735391969736e-02       5.118304358545e+03 
       2.184728761553e-02       5.251623311236e+03 
       2.750304937506e-02       5.141412440787e+03 
       3.454474211186e-02       4.808387959187e+03 
       4.206514358277e-02       4.413187716148e+03 
       4.764211457359e-02       4.147768578067e+03 
       5.190388950376e-02       3.963222324911e+03 
       5.555523459207e-02       3.813427401440e+03 
       5.888274826203e-02       3.680171266067e+03 
       6.202403915466e-02       3.554837314654e+03 
       6.505607573125e-02       3.433227596759e+03 
       6.802688239804e-02       3.313000868762e+03 
       7.096897368879e-02       3.193328451748e+03 
       7.390582597318e-02       3.074161256806e+03 
       7.685531010592e-02       2.956122414370e+03 
       7.983165226698e-02       2.840151673689e+03 
       8.284662166386e-02       2.727382729783e+03 
       8.591028478015e-02       2.618973233945e+03 
       8.903150328088e-02       2.515881844495e+03 
       9.221827338164e-02       2.418858375019e+03 
       9.547796335454e-02       2.328091569733e+03 
       9.881748338001e-02       2.243462189692e+03 
       1.022434091380e-01       2.164304323547e+03 
       1.057620729441e-01       2.089418609357e+03 
       1.093796315987e-01       2.017381354904e+03 
       1.131021172038e-01       1.946667354832e+03 
       1.169354753370e-01       1.875855203026e+03 
       1.208855937491e-01       1.803871343681e+03 
       1.249583239473e-01       1.730284124835e+03 
       1.291594974893e-01       1.655333521142e+03 
       1.334949384559e-01       1.579985897362e+03 
       1.379704733342e-01       1.505705283413e+03 
       1.425919393868e-01       1.434106592498e+03 
       1.473651924848e-01       1.366580709777e+03 
       1.522961153166e-01       1.303934261918e+03 
       1.573906268484e-01       1.246110236625e+03 
       1.626546938842e-01       1.192262141492e+03 
       1.680943455607e-01       1.140996387472e+03 
       1.737156915978e-01       1.090743750692e+03 
       1.795249451236e-01       1.040408172396e+03 
       1.855284508848e-01       9.896113073479e+02 
       1.917327196668e-01       9.389086563497e+02 
       1.981444697599e-01       8.895518413168e+02 
       2.047706763542e-01       8.427624207116e+02 
       2.116186298104e-01       7.993504347894e+02 
       2.186960038671e-01       7.591973485070e+02 
       2.260109350092e-01       7.213050164540e+02 
       2.335721144622e-01       6.846156209737e+02 
       2.413888946078e-01       6.486558468252e+02 
       2.494714120677e-01       6.134488164208e+02 
       2.578307303108e-01       5.793737475196e+02 
       2.664790054415e-01       5.470755668897e+02 
       2.754296798925e-01       5.168597459152e+02 
       2.846977101542e-01       4.883801601293e+02 
       2.942998365413e-01       4.611718429540e+02 
       3.042549054939e-01       4.348463210994e+02 
       3.145842582728e-01       4.094175459852e+02 
       3.253122044969e-01       3.852385781083e+02 
       3.364666052864e-01       3.623567672178e+02 
       3.480795996220e-01       3.406616458313e+02 
       3.601885200776e-01       3.198879135803e+02 
       3.728370621955e-01       2.999234397406e+02 
       3.860767983664e-01       2.808584208924e+02 
       3.999691668886e-01       2.627281284607e+02 
       4.145881277428e-01       2.453898621358e+02 
       4.300237718121e-01       2.287543686393e+02 
       4.463873230371e-01       2.128048315930e+02 
       4.638182251261e-01       1.975078343206e+02 
       4.824944339997e-01       1.827867434258e+02 
       5.026477954789e-01       1.685730793783e+02 
       5.245877814058e-01       1.548083338342e+02 
       5.487395383412e-01       1.414238033564e+02 
       5.757076350029e-01       1.283257512314e+02 
       6.063885680200e-01       1.154135018586e+02 
       6.421818761623e-01       1.025478018951e+02 
       6.854156403812e-01       8.955128194766e+01 
       7.402746388207e-01       7.616859016062e+01 
       8.149710601770e-01       6.207307199878e+01 
       9.267069541953e-01       4.702679568892e+01 
       1.107479224244e+00       3.176586344358e+01 
       1.380821640924e+00       1.933668967942e+01 
       1.737710226401e+00       1.139529652652e+01 
       2.187641058285e+00       6.639614251665e+00 
       2.754076908656e+00       3.832158671370e+00 
       3.467177406340e+00       2.193031626414e+00 
       4.364917744040e+00       1.245378885029e+00 
       5.495105868363e+00       7.023085714317e-01 
       6.917928418181e+00       3.935458223713e-01 
       8.709155882621e+00       2.192569577859e-01 
       1.096417765591e+01       1.215106650564e-01 
