# Matter power spectrum P(k) at redshift z=2.5
# for k=8.32437e-06 to 10.4923 h/Mpc,
# number of wavenumbers equal to 123
#    1:k (h/Mpc)              2:P (Mpc/h)^3        
       8.324371040533e-06       1.486956379343e+01 
       1.047976224013e-05       1.864948995730e+01 
       1.319323899366e-05       2.339025341977e+01 
       1.660930383299e-05       2.933605541177e+01 
       2.090987466757e-05       3.679311970596e+01 
       2.632397257643e-05       4.614541161875e+01 
       3.313991801584e-05       5.787429372664e+01 
       4.172068493492e-05       7.258307982713e+01 
       5.252323046202e-05       9.102762575922e+01 
       6.612282953816e-05       1.141542908735e+02 
       8.324371040533e-05       1.431467656239e+02 
       1.047976224013e-04       1.794832117790e+02 
       1.319323899366e-04       2.250048779232e+02 
       1.660930383299e-04       2.819961624474e+02 
       2.090987466757e-04       3.532735719456e+02 
       2.632397257643e-04       4.422757790319e+02 
       3.313991801584e-04       5.531375348098e+02 
       4.172068493492e-04       6.907155051838e+02 
       5.252323046202e-04       8.605164101740e+02 
       6.612282953816e-04       1.068469089405e+03 
       8.324371040533e-04       1.320504068287e+03 
       1.047976224013e-03       1.621950966400e+03 
       1.319323899366e-03       1.976696098228e+03 
       1.660930383299e-03       2.385730135829e+03 
       2.090987466757e-03       2.844910287881e+03 
       2.632397257643e-03       3.342884412012e+03 
       3.313991801584e-03       3.859349035407e+03 
       4.172068493492e-03       4.363626023796e+03 
       5.252323046202e-03       4.814860032281e+03 
       6.612282953816e-03       5.164029570388e+03 
       8.324371040533e-03       5.356448424988e+03 
       1.047976224013e-02       5.338306820420e+03 
       1.319323899366e-02       5.062967682194e+03 
       1.660930383261e-02       4.506850343641e+03 
       2.090987341528e-02       3.698373413387e+03 
       2.632340656198e-02       2.756624498345e+03 
       3.308869357900e-02       1.900408785357e+03 
       4.057581794350e-02       1.373628096622e+03 
       4.629356151134e-02       1.175976714727e+03 
       5.058991207153e-02       1.090893460662e+03 
       5.423326110822e-02       1.037535215289e+03 
       5.753505626227e-02       9.920284924930e+02 
       6.064165809670e-02       9.452971943893e+02 
       6.363366601878e-02       8.938148881102e+02 
       6.656080524492e-02       8.368575538370e+02 
       6.945645170390e-02       7.753727077619e+02 
       7.234453641360e-02       7.113066830694e+02 
       7.524317069925e-02       6.471126506672e+02 
       7.816670073251e-02       5.853440492380e+02 
       8.112694415648e-02       5.282924960468e+02 
       8.413397138041e-02       4.777698591614e+02 
       8.719661916379e-02       4.349457119678e+02 
       9.032283945060e-02       4.002904059969e+02 
       9.351994279721e-02       3.736277057446e+02 
       9.679477205236e-02       3.541499315216e+02 
       1.001538285009e-01       3.405388276660e+02 
       1.036033647535e-01       3.310486065257e+02 
       1.071494538359e-01       3.236109203630e+02 
       1.107980409066e-01       3.160694333036e+02 
       1.145549820991e-01       3.064688204339e+02 
       1.184260737213e-01       2.934060907425e+02 
       1.224170742127e-01       2.763819685825e+02 
       1.265337207083e-01       2.559453038884e+02 
       1.307817416855e-01       2.335400083926e+02 
       1.351668669294e-01       2.111521715471e+02 
       1.396948358899e-01       1.907669462877e+02 
       1.443714053999e-01       1.738458203633e+02 
       1.492023576597e-01       1.610375524356e+02 
       1.541935093505e-01       1.521143576640e+02 
       1.593507227157e-01       1.460600557952e+02 
       1.646799194307e-01       1.413241849633e+02 
       1.701870980716e-01       1.362714340512e+02 
       1.758783559865e-01       1.296644684980e+02 
       1.817599163693e-01       1.210471600330e+02 
       1.878381613438e-01       1.111744550331e+02 
       1.941196718775e-01       1.012717085836e+02 
       2.006112753887e-01       9.257885406572e+01 
       2.073201019664e-01       8.577683640834e+01 
       2.142536502321e-01       8.068128484385e+01 
       2.214198640252e-01       7.653897575404e+01 
       2.288272213194e-01       7.256114900323e+01 
       2.364848370920e-01       6.818179097137e+01 
       2.444025822966e-01       6.323632899494e+01 
       2.525912216660e-01       5.817750621024e+01 
       2.610625738368e-01       5.366089644711e+01 
       2.698296983019e-01       4.991804216181e+01 
       2.789071150348e-01       4.679195260576e+01 
       2.883110644080e-01       4.388884203002e+01 
       2.980598173980e-01       4.087221683407e+01 
       3.081740492610e-01       3.782910968867e+01 
       3.186772942073e-01       3.495922261835e+01 
       3.295965045807e-01       3.242791737104e+01 
       3.409627464007e-01       3.019086105553e+01 
       3.528120749524e-01       2.803437689525e+01 
       3.651866511481e-01       2.591918836609e+01 
       3.781361843453e-01       2.392244821064e+01 
       3.917198245896e-01       2.210810109879e+01 
       4.060086840928e-01       2.040242123425e+01 
       4.210892564223e-01       1.878089853265e+01 
       4.370681436933e-01       1.725006253126e+01 
       4.540787353172e-01       1.580246409554e+01 
       4.722908776856e-01       1.444507575387e+01 
       4.919252698469e-01       1.315052552848e+01 
       5.132755923232e-01       1.192158437739e+01 
       5.367438092591e-01       1.074840007892e+01 
       5.628989817285e-01       9.621130686455e+00 
       5.925803776708e-01       8.531811865547e+00 
       6.270894471769e-01       7.470509329657e+00 
       6.685732768348e-01       6.422301801185e+00 
       7.208531178995e-01       5.371990314552e+00 
       7.913499120212e-01       4.299970890702e+00 
       8.955531526139e-01       3.194366205630e+00 
       1.063355499588e+00       2.105633560909e+00 
       1.321684854594e+00       1.234779021041e+00 
       1.662920375864e+00       6.979569229094e-01 
       2.093480694767e+00       3.914262674114e-01 
       2.635536019090e+00       2.182470515451e-01 
       3.317943268123e+00       1.210388038742e-01 
       4.177043095132e+00       6.679910031305e-02 
       5.258585698621e+00       3.669924189310e-02 
       6.620167166091e+00       2.007843332336e-02 
       8.334296675717e+00       1.094256494176e-02 
       1.049225787449e+01       5.942021196559e-03 
