# Matter power spectrum P(k) at redshift z=1.5
# for k=1.13589e-05 to 11.3744 h/Mpc,
# number of wavenumbers equal to 122
#    1:k (h/Mpc)              2:P (Mpc/h)^3        
       1.135890234065e-05       6.114668701255e+00 
       1.430001080673e-05       7.636293009295e+00 
       1.800264699353e-05       9.536566941864e+00 
       2.266398977971e-05       1.190971131018e+01 
       2.853227266632e-05       1.487338688905e+01 
       3.592000311588e-05       1.857452622206e+01 
       4.522060471430e-05       2.319660172712e+01 
       5.692936841153e-05       2.896869927232e+01 
       7.166982857067e-05       3.617682890178e+01 
       9.022696844655e-05       4.517800259210e+01 
       1.135890234065e-04       5.641774214535e+01 
       1.430001080673e-04       7.045177702469e+01 
       1.800264699353e-04       8.797283518561e+01 
       2.266398977971e-04       1.098434912131e+02 
       2.853227266632e-04       1.371360273393e+02 
       3.592000311588e-04       1.711800198811e+02 
       4.522060471430e-04       2.136177450906e+02 
       5.692936841153e-04       2.664663025819e+02 
       7.166982857067e-04       3.321835430379e+02 
       9.022696844655e-04       4.137327800701e+02 
       1.135890234065e-03       5.146390703038e+02 
       1.430001080673e-03       6.390035193372e+02 
       1.800264699353e-03       7.914962150417e+02 
       2.266398977971e-03       9.772445369806e+02 
       2.853227266632e-03       1.201436793224e+03 
       3.592000311588e-03       1.468759641850e+03 
       4.522060471430e-03       1.782430106259e+03 
       5.692936841153e-03       2.142686868475e+03 
       7.166982857067e-03       2.544593407411e+03 
       9.022696844655e-03       2.975148595642e+03 
       1.135890234065e-02       3.409310473537e+03 
       1.430001080673e-02       3.806738053870e+03 
       1.800264699195e-02       4.110107284973e+03 
       2.266398607414e-02       4.252549814917e+03 
       2.853098691729e-02       4.182086785098e+03 
       3.582632385094e-02       3.911018639741e+03 
       4.353436817328e-02       3.590347336173e+03 
       4.921310913717e-02       3.386601871289e+03 
       5.357279464438e-02       3.252568444586e+03 
       5.731806707029e-02       3.148535095751e+03 
       6.073618385967e-02       3.058194364530e+03 
       6.396587148575e-02       2.973465348683e+03 
       6.708504751105e-02       2.889770072496e+03 
       7.014247624661e-02       2.804514730738e+03 
       7.317125034479e-02       2.716318483650e+03 
       7.619530868356e-02       2.624810276129e+03 
       7.923290295412e-02       2.530316271060e+03 
       8.229858211522e-02       2.433784379744e+03 
       8.540439645129e-02       2.336605818799e+03 
       8.856066327078e-02       2.240514720071e+03 
       9.177647294851e-02       2.147281990306e+03 
       9.506003416760e-02       2.058572155414e+03 
       9.841891572376e-02       1.975774893063e+03 
       1.018602195604e-01       1.899844043001e+03 
       1.053907067387e-01       1.831073450880e+03 
       1.090168903624e-01       1.769119220207e+03 
       1.127451047759e-01       1.712895536426e+03 
       1.165815573988e-01       1.660745486216e+03 
       1.205323676664e-01       1.610589094139e+03 
       1.246035963037e-01       1.560150174997e+03 
       1.288012673432e-01       1.507434250461e+03 
       1.331313847507e-01       1.451100677140e+03 
       1.375999451621e-01       1.390773370987e+03 
       1.422129479912e-01       1.327205216708e+03 
       1.469764040140e-01       1.262201950514e+03 
       1.518963434312e-01       1.198175088641e+03 
       1.569788243492e-01       1.137731059416e+03 
       1.622299425773e-01       1.082821331129e+03 
       1.676558436158e-01       1.034342600105e+03 
       1.732627376934e-01       9.917813304060e+02 
       1.790569186999e-01       9.533527740758e+02 
       1.850447878547e-01       9.166444358623e+02 
       1.912328829497e-01       8.789308578126e+02 
       1.976279140121e-01       8.384984027227e+02 
       2.042368062524e-01       7.954380246844e+02 
       2.110667512060e-01       7.515555255280e+02 
       2.181252670471e-01       7.093707789255e+02 
       2.254202691720e-01       6.709714354510e+02 
       2.329601523200e-01       6.372955267726e+02 
       2.407538857476e-01       6.075787691670e+02 
       2.488111233197e-01       5.797434489320e+02 
       2.571423308483e-01       5.516228154061e+02 
       2.657589336414e-01       5.222245889334e+02 
       2.746734880605e-01       4.921670473802e+02 
       2.838998819907e-01       4.632617555634e+02 
       2.934535705922e-01       4.371311626348e+02 
       3.033518556432e-01       4.138677842817e+02 
       3.136142193800e-01       3.922467990613e+02 
       3.242627272380e-01       3.707645940104e+02 
       3.353225186673e-01       3.489265592522e+02 
       3.468224117737e-01       3.275943879816e+02 
       3.587956567431e-01       3.078219190929e+02 
       3.712808860834e-01       2.897901397141e+02 
       3.843233285913e-01       2.726080049066e+02 
       3.979763816924e-01       2.555796860706e+02 
       4.123036783515e-01       2.389286079475e+02 
       4.273818483117e-01       2.232760644130e+02 
       4.433042729285e-01       2.085929826984e+02 
       4.601862926658e-01       1.943515639685e+02 
       4.781725903542e-01       1.804134962381e+02 
       4.974479236250e-01       1.671051481910e+02 
       5.182531758990e-01       1.543554499485e+02 
       5.409101601968e-01       1.418498643021e+02 
       5.658614324745e-01       1.296988419552e+02 
       5.937371002270e-01       1.178201894150e+02 
       6.254729490068e-01       1.060443301460e+02 
       6.625325864571e-01       9.431166484765e+01 
       7.073562921492e-01       8.241407232415e+01 
       7.643426537844e-01       7.012966105508e+01 
       8.421479492992e-01       5.715304794839e+01 
       9.589157110633e-01       4.325968091084e+01 
       1.147998377871e+00       2.917548237295e+01 
       1.432416870138e+00       1.776730396919e+01 
       1.802723587393e+00       1.048604048696e+01 
       2.269488927563e+00       6.115697237036e+00 
       2.857117273382e+00       3.531348922970e+00 
       3.596897539935e+00       2.020856498058e+00 
       4.528225716644e+00       1.147097091643e+00 
       5.700698425023e+00       6.463611530928e-01 
       7.176754112236e+00       3.617876981000e-01 
       9.034998126093e+00       2.012763826567e-01 
       1.137438873645e+01       1.113528514474e-01 
