# Matter power spectrum P(k) at redshift z=2.5
# for k=9.24619e-06 to 11.6537 h/Mpc,
# number of wavenumbers equal to 123
#    1:k (h/Mpc)              2:P (Mpc/h)^3        
       9.246187922916e-06       1.174422211165e+01 
       1.164026093838e-05       1.461818792653e+01 
       1.465422029525e-05       1.819543257013e+01 
       1.844857031971e-05       2.264803652740e+01 
       2.322537398676e-05       2.819016834217e+01 
       2.923901351036e-05       3.508836152962e+01 
       3.680973712398e-05       4.367428759121e+01 
       4.634071346684e-05       5.436060992989e+01 
       5.833950178408e-05       6.766063782784e+01 
       7.344508130739e-05       8.421262480987e+01 
       9.246187922916e-05       1.048096981313e+02 
       1.164026093838e-04       1.304364834991e+02 
       1.465422029525e-04       1.623134867656e+02 
       1.844857031971e-04       2.019499752551e+02 
       2.322537398676e-04       2.512053077280e+02 
       2.923901351036e-04       3.123568173243e+02 
       3.680973712398e-04       3.881688744793e+02 
       4.634071346684e-04       4.819519484092e+02 
       5.833950178408e-04       5.975926101266e+02 
       7.344508130739e-04       7.395284454455e+02 
       9.246187922916e-04       9.126422285855e+02 
       1.164026093838e-03       1.122055823850e+03 
       1.465422029525e-03       1.372758634495e+03 
       1.844857031971e-03       1.668931193007e+03 
       2.322537398676e-03       2.012733818441e+03 
       2.923901351036e-03       2.402775748824e+03 
       3.680973712398e-03       2.832310109233e+03 
       4.634071346684e-03       3.286945817249e+03 
       5.833950178408e-03       3.742367911164e+03 
       7.344508130739e-03       4.162479052538e+03 
       9.246187922916e-03       4.497248784891e+03 
       1.164026093838e-02       4.684553602176e+03 
       1.465422029524e-02       4.654552921518e+03 
       1.844857026964e-02       4.348215973856e+03 
       2.322532387652e-02       3.756964393274e+03 
       2.923034658039e-02       2.979224621916e+03 
       3.645845315151e-02       2.256710017867e+03 
       4.292896249229e-02       1.861330621204e+03 
       4.757047628860e-02       1.691204221894e+03 
       5.133619249901e-02       1.596752202134e+03 
       5.466963448052e-02       1.530356766446e+03 
       5.776325673262e-02       1.473505211170e+03 
       6.071671575996e-02       1.417342772020e+03 
       6.358883926322e-02       1.357382854126e+03 
       6.641781909206e-02       1.291679359552e+03 
       6.923032365686e-02       1.220026453207e+03 
       7.204609855597e-02       1.143493012490e+03 
       7.488049596139e-02       1.064056961845e+03 
       7.774596080552e-02       9.842527658600e+02 
       8.065295160321e-02       9.068251482139e+02 
       8.361053613543e-02       8.343866445217e+02 
       8.662679072540e-02       7.691486260697e+02 
       8.970907583748e-02       7.126956714109e+02 
       9.286423096337e-02       6.658345114638e+02 
       9.609871516497e-02       6.285879166089e+02 
       9.941871000818e-02       6.001520866786e+02 
       1.028301958304e-01       5.789854418007e+02 
       1.063390086988e-01       5.628868360022e+02 
       1.099508831430e-01       5.491795406759e+02 
       1.136714842725e-01       5.350033211564e+02 
       1.175064319232e-01       5.177563192366e+02 
       1.214613188358e-01       4.956149811141e+02 
       1.255417244408e-01       4.679888804187e+02 
       1.297532255418e-01       4.357483849342e+02 
       1.341014050013e-01       4.010205697165e+02 
       1.385918594101e-01       3.666701665584e+02 
       1.432302066446e-01       3.355506264256e+02 
       1.480220941695e-01       3.097743344172e+02 
       1.529732089071e-01       2.902602800707e+02 
       1.580892894830e-01       2.765231434670e+02 
       1.633761416386e-01       2.668184131591e+02 
       1.688396575957e-01       2.586505849909e+02 
       1.744858401532e-01       2.493625930008e+02 
       1.803208322976e-01       2.369099685793e+02 
       1.863509531187e-01       2.210176295697e+02 
       1.925827408494e-01       2.031933523324e+02 
       1.990230038987e-01       1.858691425984e+02 
       2.056788808275e-01       1.710811674676e+02 
       2.125579103481e-01       1.598064190110e+02 
       2.196681126129e-01       1.517115738828e+02 
       2.270180833269e-01       1.452313500500e+02 
       2.346171025834e-01       1.383679182764e+02 
       2.424752608169e-01       1.299673430515e+02 
       2.506036049293e-01       1.202595456553e+02 
       2.590143085198e-01       1.105630499432e+02 
       2.677208713058e-01       1.023319081997e+02 
       2.767383543550e-01       9.597261971902e+01 
       2.860836597861e-01       9.072876621427e+01 
       2.957758663309e-01       8.549778987171e+01 
       3.058366358490e-01       7.964015023313e+01 
       3.162907109579e-01       7.356518903875e+01 
       3.271665309759e-01       6.807141511927e+01 
       3.384970032768e-01       6.350035032163e+01 
       3.503204813210e-01       5.941955921392e+01 
       3.626820212170e-01       5.527894706462e+01 
       3.756350191705e-01       5.106963427111e+01 
       3.892433782611e-01       4.715784308119e+01 
       4.035844241525e-01       4.367259282809e+01 
       4.187529019183e-01       4.040796223531e+01 
       4.348665690620e-01       3.715797983026e+01 
       4.520742059276e-01       3.406075829808e+01 
       4.705673944168e-01       3.121780851820e+01 
       4.905983677071e-01       2.846359453506e+01 
       5.125080181418e-01       2.580015134429e+01 
       5.367716620129e-01       2.327106769620e+01 
       5.640774608373e-01       2.080254582485e+01 
       5.954685501973e-01       1.840149791953e+01 
       6.326181815053e-01       1.602738551535e+01 
       6.784042214704e-01       1.365306233049e+01 
       7.382069712277e-01       1.123089768238e+01 
       8.229819471927e-01       8.714824686048e+00 
       9.554346686057e-01       6.129132800906e+00 
       1.168553935485e+00       3.786653857627e+00 
       1.467182234096e+00       2.178951440108e+00 
       1.846979746111e+00       1.235605713808e+00 
       2.325209291009e+00       6.953596571490e-01 
       2.927265063873e+00       3.886607783518e-01 
       3.685208375967e+00       2.158929356420e-01 
       4.639402472262e+00       1.192457064661e-01 
       5.840661667871e+00       6.552185114859e-02 
       7.352957395375e+00       3.583038005729e-02 
       9.256824916877e+00       1.950715754418e-02 
       1.165365212039e+01       1.057713910573e-02 
