# Matter power spectrum P(k) at redshift z=1.5
# for k=1.18453e-05 to 11.8618 h/Mpc,
# number of wavenumbers equal to 122
#    1:k (h/Mpc)              2:P (Mpc/h)^3        
       1.184531506598e-05       6.836883330198e+00 
       1.491236814728e-05       8.482968651226e+00 
       1.877355921064e-05       1.052537155767e+01 
       2.363451076009e-05       1.305950552838e+01 
       2.975408619120e-05       1.620375458194e+01 
       3.745817521082e-05       2.010499175621e+01 
       4.715704865234e-05       2.494543786820e+01 
       5.936720689364e-05       3.095114598195e+01 
       7.473888538565e-05       3.840252423675e+01 
       9.409068206116e-05       4.764734850724e+01 
       1.184531506598e-04       5.911684787776e+01 
       1.491236814728e-04       7.334552485378e+01 
       1.877355921064e-04       9.099549678750e+01 
       2.363451076009e-04       1.128862008682e+02 
       2.975408619120e-04       1.400303094493e+02 
       3.745817521082e-04       1.736765247862e+02 
       4.715704865234e-04       2.153594489257e+02 
       5.936720689364e-04       2.669558064354e+02 
       7.473888538565e-04       3.307448961691e+02 
       9.409068206116e-04       4.094694999514e+02 
       1.184531506598e-03       5.063917185941e+02 
       1.491236814728e-03       6.252649457644e+02 
       1.877355921064e-03       7.704797081975e+02 
       2.363451076009e-03       9.468341687377e+02 
       2.975408619120e-03       1.159290034488e+03 
       3.745817521082e-03       1.412500659092e+03 
       4.715704865234e-03       1.709993370642e+03 
       5.936720689364e-03       2.052855021173e+03 
       7.473888538565e-03       2.437752332612e+03 
       9.409068206116e-03       2.854204623243e+03 
       1.184531506598e-02       3.280768313575e+03 
       1.491236814728e-02       3.681433315008e+03 
       1.877355920839e-02       4.003283312894e+03 
       2.363450587980e-02       4.181798506833e+03 
       2.975249455900e-02       4.162568980506e+03 
       3.734798378369e-02       3.947101554192e+03 
       4.527463058958e-02       3.669103931268e+03 
       5.107669491496e-02       3.485177270745e+03 
       5.555382572311e-02       3.360322477979e+03 
       5.941118245994e-02       3.261845929156e+03 
       6.293720071372e-02       3.175650707243e+03 
       6.627206369303e-02       3.094621019739e+03 
       6.949486670498e-02       3.014579012742e+03 
       7.265527598392e-02       2.933044937023e+03 
       7.578708275042e-02       2.848648330478e+03 
       7.891478194005e-02       2.760843986379e+03 
       8.205708164011e-02       2.669818886486e+03 
       8.522891678218e-02       2.576298765227e+03 
       8.844267323271e-02       2.481497062578e+03 
       9.170896742032e-02       2.386929159642e+03 
       9.503716223230e-02       2.294301856912e+03 
       9.843571934578e-02       2.205237814326e+03 
       1.019124462088e-01       2.121184565927e+03 
       1.054746729026e-01       2.043210047488e+03 
       1.091293809682e-01       1.971848686971e+03 
       1.128832984768e-01       1.906956184776e+03 
       1.167429708448e-01       1.847765240568e+03 
       1.207148138882e-01       1.792875171154e+03 
       1.248051536814e-01       1.740335017045e+03 
       1.290202565215e-01       1.688043475887e+03 
       1.333663514669e-01       1.633949013966e+03 
       1.378496473609e-01       1.576537907931e+03 
       1.424763458844e-01       1.515159745179e+03 
       1.472526519332e-01       1.450229274929e+03 
       1.521847824590e-01       1.383223871019e+03 
       1.572789748064e-01       1.316409558636e+03 
       1.625414955176e-01       1.252366595187e+03 
       1.679786505305e-01       1.193336293721e+03 
       1.735967976761e-01       1.140526481125e+03 
       1.794023623606e-01       1.093883658649e+03 
       1.854018573071e-01       1.052014692257e+03 
       1.916019072276e-01       1.012535964662e+03 
       1.980092792909e-01       9.725718081207e+02 
       2.046309202620e-01       9.300867983625e+02 
       2.114740012084e-01       8.847579357342e+02 
       2.185459707160e-01       8.379777253486e+02 
       2.258546176296e-01       7.921719639768e+02 
       2.334081444581e-01       7.498156588235e+02 
       2.412152527625e-01       7.123358095621e+02 
       2.492852421081e-01       6.793760239829e+02 
       2.576281245206e-01       6.489555902261e+02 
       2.662547568782e-01       6.186963437757e+02 
       2.751769943315e-01       5.870650656093e+02 
       2.844078687133e-01       5.542917844675e+02 
       2.939617970605e-01       5.222542305278e+02 
       3.038548268958e-01       4.928927237395e+02 
       3.141049269485e-01       4.668233358834e+02 
       3.247323347052e-01       4.429587099409e+02 
       3.357599758412e-01       4.194636962921e+02 
       3.472139755678e-01       3.954544712255e+02 
       3.591242888226e-01       3.715805167040e+02 
       3.715254858628e-01       3.492514015038e+02 
       3.844577435262e-01       3.289744489800e+02 
       3.979681122102e-01       3.099050600184e+02 
       4.121121577203e-01       2.909736970678e+02 
       4.269561207586e-01       2.722258101339e+02 
       4.425798036066e-01       2.544699762912e+02 
       4.590804981949e-01       2.379462206993e+02 
       4.765784379649e-01       2.219797356214e+02 
       4.952245341512e-01       2.062030522429e+02 
       5.152116322189e-01       1.910772217650e+02 
       5.367913651190e-01       1.766627244503e+02 
       5.603002300933e-01       1.624743108531e+02 
       5.862015075888e-01       1.486264351118e+02 
       6.151557259707e-01       1.351142813906e+02 
       6.481455092133e-01       1.216621503713e+02 
       6.867109293242e-01       1.082511265848e+02 
       7.334263650042e-01       9.460849493953e+01 
       7.929463886036e-01       8.048963914728e+01 
       8.744596542623e-01       6.553627957815e+01 
       9.972349379242e-01       4.949213187037e+01 
       1.196201875830e+00       3.326436167835e+01 
       1.493728207209e+00       2.022771717788e+01 
       1.879969108148e+00       1.193135081453e+01 
       2.366736130000e+00       6.951188562567e+00 
       2.979544249708e+00       4.007242243711e+00 
       3.751023971522e+00       2.288336238537e+00 
       4.722259397998e+00       1.295648917984e+00 
       5.944972357223e+00       7.279443563106e-01 
       7.484276772922e+00       4.061336323817e-01 
       9.422146218333e+00       2.251490098068e-01 
       1.186177930790e+01       1.240943230187e-01 
