# Matter power spectrum P(k) at redshift z=2
# for k=1.96293e-07 to 12.3998 h/Mpc,
# number of wavenumbers equal to 140
#    1:k (h/Mpc)              2:P (Mpc/h)^3        
       1.962927550905e-07       2.041823581589e-01 
       2.471179375346e-07       2.555925642355e-01 
       3.111030512724e-07       3.199471269693e-01 
       3.916555369336e-07       4.005052507437e-01 
       4.930651081155e-07       5.013467609355e-01 
       6.207321942757e-07       6.275787245844e-01 
       7.814555332924e-07       7.855940949749e-01 
       9.837942290490e-07       9.833954790213e-01 
       1.238523554926e-06       1.231000424198e+00 
       1.559208776402e-06       1.540948750649e+00 
       1.962927550905e-06       1.928937619917e+00 
       2.471179375346e-06       2.414616501994e+00 
       3.111030512724e-06       3.022582298012e+00 
       3.916555369336e-06       3.783625008160e+00 
       4.930651081155e-06       4.736287015431e+00 
       6.207321942757e-06       5.928814928271e+00 
       7.814555332924e-06       7.421602770297e+00 
       9.837942290490e-06       9.290250143215e+00 
       1.238523554926e-05       1.162939000556e+01 
       1.559208776402e-05       1.455747948477e+01 
       1.962927550905e-05       1.822279545436e+01 
       2.471179375346e-05       2.281093674448e+01 
       3.111030512724e-05       2.855420943496e+01 
       3.916555369336e-05       3.574336359360e+01 
       4.930651081156e-05       4.474226206961e+01 
       6.207321942757e-05       5.600619704006e+01 
       7.814555332924e-05       7.010472798986e+01 
       9.837942290490e-05       8.775009160281e+01 
       1.238523554926e-04       1.098324135190e+02 
       1.559208776402e-04       1.374630972090e+02 
       1.962927550905e-04       1.720277967284e+02 
       2.471179375346e-04       2.152501456087e+02 
       3.111030512724e-04       2.692666470688e+02 
       3.916555369336e-04       3.367114294900e+02 
       4.930651081156e-04       4.208064936853e+02 
       6.207321942757e-04       5.254485526340e+02 
       7.814555332924e-04       6.552786670949e+02 
       9.837942290490e-04       8.157174673212e+02 
       1.238523554926e-03       1.012942012249e+03 
       1.559208776402e-03       1.253743219298e+03 
       1.962927550905e-03       1.545119291794e+03 
       2.471179375346e-03       1.893481707103e+03 
       3.111030512724e-03       2.303453061824e+03 
       3.916555369336e-03       2.776049776725e+03 
       4.930651081156e-03       3.306038141628e+03 
       6.207321942757e-03       3.878447432879e+03 
       7.814555332924e-03       4.464245250863e+03 
       9.837942290490e-03       5.015443225702e+03 
       1.238523554926e-02       5.461172012405e+03 
       1.559208776370e-02       5.709190941311e+03 
       1.962927444378e-02       5.663017438635e+03 
       2.471129970236e-02       5.269198846682e+03 
       3.106464213886e-02       4.597161964144e+03 
       3.812382379422e-02       3.932687243215e+03 
       4.353717748109e-02       3.562337361202e+03 
       4.759654384534e-02       3.356433522447e+03 
       5.103441903265e-02       3.215188733452e+03 
       5.414780437644e-02       3.102023973367e+03 
       5.707590025996e-02       3.000097442418e+03 
       5.989521407237e-02       2.900348257597e+03 
       6.265288013002e-02       2.797686549534e+03 
       6.538050135876e-02       2.689526132503e+03 
       6.810071797653e-02       2.575111802622e+03 
       7.083065210998e-02       2.455124566703e+03 
       7.358385806642e-02       2.331367140953e+03 
       7.637149528248e-02       2.206449310561e+03 
       7.920306891747e-02       2.083448262483e+03 
       8.208691642796e-02       1.965551119226e+03 
       8.503053791377e-02       1.855700680537e+03 
       8.804082656211e-02       1.756273244886e+03 
       9.112423301615e-02       1.668812893845e+03 
       9.428688472859e-02       1.593840346559e+03 
       9.753467383612e-02       1.530747908594e+03 
       1.008733225103e-01       1.477793132550e+03 
       1.043084318742e-01       1.432212596271e+03 
       1.078455187389e-01       1.390484128643e+03 
       1.114900432205e-01       1.348762220611e+03 
       1.152474295070e-01       1.303475836671e+03 
       1.191230815229e-01       1.252011827574e+03 
       1.231223948855e-01       1.193329606923e+03 
       1.272507663209e-01       1.128304803142e+03 
       1.315136015500e-01       1.059632544352e+03 
       1.359163225614e-01       9.912411619419e+02 
       1.404643751217e-01       9.273403417943e+02 
       1.451632373385e-01       8.713610792482e+02 
       1.500184300654e-01       8.250746639380e+02 
       1.550355299213e-01       7.881080103814e+02 
       1.602201856904e-01       7.579820300959e+02 
       1.655781388557e-01       7.307368412637e+02 
       1.711152490237e-01       7.021152574709e+02 
       1.768375249974e-01       6.690489284867e+02 
       1.827511622718e-01       6.308817167043e+02 
       1.888625877627e-01       5.896599910832e+02 
       1.951785126351e-01       5.491886700376e+02 
       2.017059941979e-01       5.132475095435e+02 
       2.084525079758e-01       4.838529641016e+02 
       2.154260312800e-01       4.603902699025e+02 
       2.226351398950e-01       4.400099521410e+02 
       2.300891199003e-01       4.191838867785e+02 
       2.377980971852e-01       3.957275264656e+02 
       2.457731879350e-01       3.700621856763e+02 
       2.540266743153e-01       3.447245648638e+02 
       2.625722108396e-01       3.224004624197e+02 
       2.714250685694e-01       3.039698395340e+02 
       2.806024265233e-01       2.880168487848e+02 
       2.901237226613e-01       2.721513891570e+02 
       3.000110808846e-01       2.551001237800e+02 
       3.102898360962e-01       2.376907808917e+02 
       3.209891871922e-01       2.217247213115e+02 
       3.321430189400e-01       2.079549531796e+02 
       3.437909496581e-01       1.953990988666e+02 
       3.559796849911e-01       1.827046844628e+02 
       3.687647929796e-01       1.698311972006e+02 
       3.822130688312e-01       1.578032086864e+02 
       3.964057407545e-01       1.469864575873e+02 
       4.114429008631e-01       1.366192165187e+02 
       4.274497632276e-01       1.262588600115e+02 
       4.445857210372e-01       1.164077977406e+02 
       4.630578245550e-01       1.072094850982e+02 
       4.831414888849e-01       9.818477036312e+01 
       5.052135099309e-01       8.940805837045e+01 
       5.298070314554e-01       8.097680468697e+01 
       5.577078345122e-01       7.263013008766e+01 
       5.901334445009e-01       6.441585961301e+01 
       6.290904917866e-01       5.615303477991e+01 
       6.781459609214e-01       4.772978967748e+01 
       7.442181096996e-01       3.894505256934e+01 
       8.417391098258e-01       2.964600280931e+01 
       9.986697467562e-01       2.017437819597e+01 
       1.240760538948e+00       1.225907932472e+01 
       1.561049740986e+00       7.162054563079e+00 
       1.965232975080e+00       4.137794115885e+00 
       2.474081704605e+00       2.369640573769e+00 
       3.114684328774e+00       1.346325890067e+00 
       3.921155251211e+00       7.594419524996e-01 
       4.936441989340e+00       4.255973882671e-01 
       6.214612264227e+00       2.370899789388e-01 
       7.823733303884e+00       1.313582427220e-01 
       9.849496671359e+00       7.241434296114e-02 
       1.239978165296e+01       3.973596721706e-02 
