# Matter power spectrum P(k) at redshift z=2
# for k=2.27323e-07 to 11.4074 h/Mpc,
# number of wavenumbers equal to 139
#    1:k (h/Mpc)              2:P (Mpc/h)^3        
       2.273231231930e-07       1.272461647569e-01 
       2.861828564761e-07       1.594170253692e-01 
       3.602828704376e-07       1.997214456066e-01 
       4.535692610280e-07       2.502157830689e-01 
       5.710098687169e-07       3.134762912926e-01 
       7.188588341129e-07       3.927305621549e-01 
       9.049896537575e-07       4.920221993422e-01 
       1.139314472526e-06       6.164171255606e-01 
       1.434311941488e-06       7.722620486866e-01 
       1.805691751579e-06       9.675082741463e-01 
       2.273231231930e-06       1.212117383857e+00 
       2.861828564761e-06       1.518569479999e+00 
       3.602828704376e-06       1.902499920425e+00 
       4.535692610280e-06       2.383497033243e+00 
       5.710098687169e-06       2.986101499925e+00 
       7.188588341129e-06       3.741058386781e+00 
       9.049896537575e-06       4.686885680123e+00 
       1.139314472526e-05       5.871839299986e+00 
       1.434311941488e-05       7.356374759348e+00 
       1.805691751579e-05       9.216230863657e+00 
       2.273231231930e-05       1.154629241672e+01 
       2.861828564761e-05       1.446542823938e+01 
       3.602828704376e-05       1.812254985957e+01 
       4.535692610280e-05       2.270419701799e+01 
       5.710098687169e-05       2.844403111645e+01 
       7.188588341129e-05       3.563470930884e+01 
       9.049896537575e-05       4.464272201280e+01 
       1.139314472526e-04       5.592690519484e+01 
       1.434311941488e-04       7.006148224682e+01 
       1.805691751579e-04       8.776463506743e+01 
       2.273231231930e-04       1.099337199184e+02 
       2.861828564761e-04       1.376882673765e+02 
       3.602828704376e-04       1.724217214154e+02 
       4.535692610280e-04       2.158622931258e+02 
       5.710098687169e-04       2.701420914360e+02 
       7.188588341129e-04       3.378716917579e+02 
       9.049896537575e-04       4.222147496326e+02 
       1.139314472526e-03       5.269547440195e+02 
       1.434311941488e-03       6.565416730113e+02 
       1.805691751579e-03       8.160836850596e+02 
       2.273231231930e-03       1.011230831233e+03 
       2.861828564761e-03       1.247841371852e+03 
       3.602828704376e-03       1.531374531053e+03 
       4.535692610280e-03       1.865888499926e+03 
       5.710098687169e-03       2.252402282638e+03 
       7.188588341129e-03       2.686441218696e+03 
       9.049896537575e-03       3.154605623078e+03 
       1.139314472526e-02       3.630035010424e+03 
       1.434311941488e-02       4.067497999840e+03 
       1.805691751514e-02       4.400811032366e+03 
       2.273231043448e-02       4.549745879575e+03 
       2.861750336888e-02       4.448733881656e+03 
       3.596226071549e-02       4.106477289652e+03 
       4.397911761912e-02       3.698286114175e+03 
       5.002256689554e-02       3.445085455579e+03 
       5.459477838738e-02       3.290826360930e+03 
       5.848867968090e-02       3.178791770240e+03 
       6.202570047892e-02       3.086264321764e+03 
       6.535822992287e-02       3.002093881679e+03 
       6.857072699824e-02       2.919918014795e+03 
       7.171554056698e-02       2.835896496096e+03 
       7.482793259578e-02       2.747826328592e+03 
       7.793325870014e-02       2.654745492332e+03 
       8.105075409123e-02       2.556716947872e+03 
       8.419568617537e-02       2.454664215349e+03 
       8.738065355986e-02       2.350202056052e+03 
       9.061640848849e-02       2.245438624252e+03 
       9.391239840649e-02       2.142744414187e+03 
       9.727713432695e-02       2.044498898330e+03 
       1.007184481925e-01       1.952831294304e+03 
       1.042436766730e-01       1.869376616234e+03 
       1.078597947590e-01       1.795068523257e+03 
       1.115735141934e-01       1.729988702222e+03 
       1.153913567108e-01       1.673291815342e+03 
       1.193197088754e-01       1.623228669334e+03 
       1.233648632688e-01       1.577292756299e+03 
       1.275330494542e-01       1.532510141160e+03 
       1.318304572619e-01       1.485874647139e+03 
       1.362632543595e-01       1.434887212527e+03 
       1.408375996815e-01       1.378103247019e+03 
       1.455596540348e-01       1.315541255441e+03 
       1.504355890269e-01       1.248799341856e+03 
       1.554715953564e-01       1.180782533000e+03 
       1.606738914353e-01       1.115057264449e+03 
       1.660487332695e-01       1.054978517763e+03 
       1.716024264978e-01       1.002815569295e+03 
       1.773413414718e-01       9.591093987388e+02 
       1.832719322469e-01       9.224456497808e+02 
       1.894007603490e-01       8.897631062231e+02 
       1.957345241760e-01       8.572268812843e+02 
       2.022800949036e-01       8.215182140191e+02 
       2.090445597789e-01       7.811245438188e+02 
       2.160352737301e-01       7.370236451723e+02 
       2.232599202885e-01       6.922980145388e+02 
       2.307265829335e-01       6.507387857927e+02 
       2.384438281419e-01       6.150778827626e+02 
       2.464208016690e-01       5.857060127183e+02 
       2.546673399311e-01       5.605108010816e+02 
       2.631940988288e-01       5.360057114880e+02 
       2.720127029761e-01       5.093143367884e+02 
       2.811359191369e-01       4.799102189656e+02 
       2.905778587734e-01       4.498550993448e+02 
       3.003542160711e-01       4.222088341941e+02 
       3.104825497417e-01       3.987395842061e+02 
       3.209826194918e-01       3.786691810566e+02 
       3.318767915268e-01       3.594437332918e+02 
       3.431905322006e-01       3.389965016697e+02 
       3.549530154530e-01       3.175564039696e+02 
       3.671978788047e-01       2.971650966990e+02 
       3.799641756189e-01       2.793356661696e+02 
       3.932975899907e-01       2.634256710965e+02 
       4.072520079785e-01       2.475988975347e+02 
       4.218915797836e-01       2.312183744883e+02 
       4.372934698944e-01       2.154744038516e+02 
       4.535515896791e-01       2.013221234305e+02 
       4.707817629964e-01       1.879785679669e+02 
       4.891290325048e-01       1.744762529916e+02 
       5.087782513409e-01       1.613627570940e+02 
       5.299698742555e-01       1.491862529949e+02 
       5.530242721031e-01       1.372333768033e+02 
       5.783805963151e-01       1.254053696679e+02 
       6.066616748985e-01       1.140612777144e+02 
       6.387880927952e-01       1.027244099090e+02 
       6.761912660526e-01       9.149678018605e+01 
       7.212405966387e-01       8.010089742700e+01 
       7.781700063960e-01       6.838808498188e+01 
       8.552370044492e-01       5.604393909776e+01 
       9.697061416642e-01       4.283136237805e+01 
       1.154436092473e+00       2.927618548200e+01 
       1.436817065308e+00       1.796347399903e+01 
       1.807961399374e+00       1.062900266291e+01 
       2.276078520098e+00       6.213677739135e+00 
       2.865413067898e+00       3.596777675696e+00 
       3.607341326459e+00       2.063551571880e+00 
       4.541373664895e+00       1.174429141968e+00 
       5.717250711189e+00       6.635531259363e-01 
       7.197592205914e+00       3.724347338739e-01 
       9.061231731756e+00       2.077800167525e-01 
       1.140741488926e+01       1.152814270906e-01 
