# Matter power spectrum P(k) at redshift z=1.5
# for k=1.80241e-07 to 11.3874 h/Mpc,
# number of wavenumbers equal to 140
#    1:k (h/Mpc)              2:P (Mpc/h)^3        
       1.802406768921e-07       6.788319091294e-01 
       2.269095683785e-07       8.443689376798e-01 
       2.856622218109e-07       1.050273113393e+00 
       3.596274302273e-07       1.306388194979e+00 
       4.527441106914e-07       1.624958396949e+00 
       5.699710659895e-07       2.021213754845e+00 
       7.175510589616e-07       2.514098233398e+00 
       9.033432623866e-07       3.127175388371e+00 
       1.137241788592e-06       3.889754876356e+00 
       1.431702587012e-06       4.838293670804e+00 
       1.802406768921e-06       6.018138961967e+00 
       2.269095683785e-06       7.485696065940e+00 
       2.856622218109e-06       9.311124968870e+00 
       3.596274302273e-06       1.158169439658e+01 
       4.527441106914e-06       1.440595370618e+01 
       5.699710659895e-06       1.791892196291e+01 
       7.175510589616e-06       2.228854206707e+01 
       9.033432623866e-06       2.772370812808e+01 
       1.137241788592e-05       3.448424911094e+01 
       1.431702587012e-05       4.289334455657e+01 
       1.802406768921e-05       5.335296309662e+01 
       2.269095683785e-05       6.636305610808e+01 
       2.856622218109e-05       8.254541293555e+01 
       3.596274302273e-05       1.026732960533e+02 
       4.527441106914e-05       1.277082295214e+02 
       5.699710659895e-05       1.588456142303e+02 
       7.175510589616e-05       1.975711830362e+02 
       9.033432623866e-05       2.457306672227e+02 
       1.137241788592e-04       3.056153660239e+02 
       1.431702587012e-04       3.800664740108e+02 
       1.802406768921e-04       4.726007874031e+02 
       2.269095683785e-04       5.875593452141e+02 
       2.856622218109e-04       7.302779580012e+02 
       3.596274302273e-04       9.072734930248e+02 
       4.527441106914e-04       1.126431504465e+03 
       5.699710659895e-04       1.397170129444e+03 
       7.175510589616e-04       1.730545779988e+03 
       9.033432623866e-04       2.139258981370e+03 
       1.137241788592e-03       2.637485310354e+03 
       1.431702587012e-03       3.240328160888e+03 
       1.802406768921e-03       3.962556387381e+03 
       2.269095683785e-03       4.816479008639e+03 
       2.856622218109e-03       5.808825457092e+03 
       3.596274302273e-03       6.936268317065e+03 
       4.527441106914e-03       8.179242947473e+03 
       5.699710659895e-03       9.494376858885e+03 
       7.175510589617e-03       1.080573295895e+04 
       9.033432623866e-03       1.199610203318e+04 
       1.137241788592e-02       1.290224713444e+04 
       1.431702586928e-02       1.332450987441e+04 
       1.802406551408e-02       1.307223742936e+04 
       2.269013901056e-02       1.207086534063e+04 
       2.850256806132e-02       1.052571048090e+04 
       3.473770380922e-02       9.100915045470e+03 
       3.937535556422e-02       8.314554385141e+03 
       4.291236300852e-02       7.846338328567e+03 
       4.593925226532e-02       7.504994491823e+03 
       4.869595646371e-02       7.219450956822e+03 
       5.129739384670e-02       6.956814385058e+03 
       5.380772718304e-02       6.699755266561e+03 
       5.626693897412e-02       6.439037220318e+03 
       5.870207211998e-02       6.170508397656e+03 
       6.113263665234e-02       5.893632627588e+03 
       6.357347417622e-02       5.610573064839e+03 
       6.603639264485e-02       5.325453907655e+03 
       6.853115584121e-02       5.043653915990e+03 
       7.106611137513e-02       4.771091786565e+03 
       7.364860504373e-02       4.513517720790e+03 
       7.628526314309e-02       4.275851353909e+03 
       7.898218997731e-02       4.061610987491e+03 
       8.174510906845e-02       3.872475810837e+03 
       8.457946588510e-02       3.708013738305e+03 
       8.749050358236e-02       3.565603589626e+03 
       9.048331938254e-02       3.440587253554e+03 
       9.356290680047e-02       3.326695437571e+03 
       9.673418736221e-02       3.216779832264e+03 
       1.000020344500e-01       3.103840998015e+03 
       1.033712912353e-01       2.982243474043e+03 
       1.068467842165e-01       2.848888416830e+03 
       1.104333335775e-01       2.704016310287e+03 
       1.141357613910e-01       2.551322163773e+03 
       1.179588985566e-01       2.397215960003e+03 
       1.219075912847e-01       2.249327446551e+03 
       1.259867078807e-01       2.114617829330e+03 
       1.302011465556e-01       1.997602092091e+03 
       1.345558449649e-01       1.899149238910e+03 
       1.390557921661e-01       1.816183308752e+03 
       1.437060436761e-01       1.742450229164e+03 
       1.485117403044e-01       1.670327556391e+03 
       1.534781314345e-01       1.593326768590e+03 
       1.586106034348e-01       1.508471316479e+03 
       1.639147138918e-01       1.417451915390e+03 
       1.693962323939e-01       1.325797073138e+03 
       1.750611886510e-01       1.240278041682e+03 
       1.809159288237e-01       1.165768140324e+03 
       1.869671810747e-01       1.103074572773e+03 
       1.932221315522e-01       1.048762314965e+03 
       1.996885122842e-01       9.971055539288e+02 
       2.063747028409e-01       9.433020034293e+02 
       2.132898481162e-01       8.861729048320e+02 
       2.204439952493e-01       8.285193366179e+02 
       2.278482535771e-01       7.747765535381e+02 
       2.355149826786e-01       7.276838738667e+02 
       2.434580151043e-01       6.864568421062e+02 
       2.516929224474e-01       6.477696956064e+02 
       2.602373361831e-01       6.087011317508e+02 
       2.691113384813e-01       5.691020482012e+02 
       2.783379434039e-01       5.311882811188e+02 
       2.879436961842e-01       4.968732746594e+02 
       2.979594286172e-01       4.657601593685e+02 
       3.084212235036e-01       4.359204477010e+02 
       3.193716629793e-01       4.063375302351e+02 
       3.308614683239e-01       3.778494610977e+02 
       3.429516889070e-01       3.514726358833e+02 
       3.557166762210e-01       3.267850646137e+02 
       3.692482045226e-01       3.028189626956e+02 
       3.836613067926e-01       2.796495978265e+02 
       3.991027475374e-01       2.577688138983e+02 
       4.157636764868e-01       2.368347362131e+02 
       4.338991506589e-01       2.164834442602e+02 
       4.538594103308e-01       1.968902770284e+02 
       4.761422446480e-01       1.778404243282e+02 
       5.014853378284e-01       1.591400188313e+02 
       5.310393953907e-01       1.406587687239e+02 
       5.667167113156e-01       1.221124648135e+02 
       6.119506686650e-01       1.031759250884e+02 
       6.734707959947e-01       8.342675796772e+01 
       7.653690198619e-01       6.258829594461e+01 
       9.139825917784e-01       4.173388827738e+01 
       1.139189172071e+00       2.499173401143e+01 
       1.433594792348e+00       1.448273616330e+01 
       1.804783113649e+00       8.304760959631e+00 
       2.272087314014e+00       4.720935981044e+00 
       2.860388457425e+00       2.662684941879e+00 
       3.601015716655e+00       1.491149542362e+00 
       4.533410193967e+00       8.296846978791e-01 
       5.707225295271e+00       4.589258506226e-01 
       7.184970955052e+00       2.524801680748e-01 
       9.045342518318e+00       1.382160667728e-01 
       1.138741155469e+01       7.531879780060e-02 
