# Matter power spectrum P(k) at redshift z=1
# for k=1.84536e-07 to 11.6557 h/Mpc,
# number of wavenumbers equal to 140
#    1:k (h/Mpc)              2:P (Mpc/h)^3        
       1.845363078039e-07       6.588034856145e-01 
       2.323174472930e-07       8.177600459270e-01 
       2.924703380003e-07       1.015069754772e+00 
       3.681983407047e-07       1.259986485955e+00 
       4.635342476935e-07       1.563996893962e+00 
       5.835550436583e-07       1.941359140603e+00 
       7.346522736421e-07       2.409771605338e+00 
       9.248724161204e-07       2.991202942113e+00 
       1.164345387321e-06       3.712922411489e+00 
       1.465823996204e-06       4.608778809189e+00 
       1.845363078039e-06       5.720787970443e+00 
       2.323174472930e-06       7.101103298461e+00 
       2.924703380003e-06       8.814461724235e+00 
       3.681983407047e-06       1.094121978801e+01 
       4.635342476935e-06       1.358112219349e+01 
       5.835550436583e-06       1.685797949018e+01 
       7.346522736421e-06       2.092547409342e+01 
       9.248724161204e-06       2.597436659388e+01 
       1.164345387321e-05       3.224143967132e+01 
       1.465823996204e-05       4.002059772393e+01 
       1.845363078039e-05       4.967664018150e+01 
       2.323174472930e-05       6.166234928794e+01 
       2.924703380003e-05       7.653968363026e+01 
       3.681983407047e-05       9.500605140881e+01 
       4.635342476935e-05       1.179268565033e+02 
       5.835550436583e-05       1.463757669178e+02 
       7.346522736421e-05       1.816844438051e+02 
       9.248724161204e-05       2.255037701272e+02 
       1.164345387321e-04       2.798788812609e+02 
       1.465823996204e-04       3.473404202127e+02 
       1.845363078039e-04       4.310142123803e+02 
       2.323174472930e-04       5.347506171025e+02 
       2.924703380003e-04       6.632726034646e+02 
       3.681983407047e-04       8.223374436433e+02 
       4.635342476935e-04       1.018900497879e+03 
       5.835550436583e-04       1.261261907816e+03 
       7.346522736421e-04       1.559170426896e+03 
       9.248724161204e-04       1.923848589531e+03 
       1.164345387321e-03       2.367857601436e+03 
       1.465823996204e-03       2.904593843575e+03 
       1.845363078039e-03       3.547217879078e+03 
       2.323174472930e-03       4.306836661027e+03 
       2.924703380003e-03       5.189698820478e+03 
       3.681983407047e-03       6.193240302279e+03 
       4.635342476935e-03       7.300270646737e+03 
       5.835550436583e-03       8.471553331629e+03 
       7.346522736421e-03       9.636596750765e+03 
       9.248724161204e-03       1.068330277814e+04 
       1.164345387321e-02       1.144995713494e+04 
       1.465823996195e-02       1.173025352157e+04 
       1.845363035819e-02       1.131583917434e+04 
       2.323149963871e-02       1.011085787400e+04 
       2.921982877803e-02       8.318193055152e+03 
       3.608059490324e-02       6.622944828584e+03 
       4.155725255429e-02       5.725890902285e+03 
       4.559562762772e-02       5.289318619359e+03 
       4.897568326831e-02       5.026456114017e+03 
       5.201746506253e-02       4.838227848582e+03 
       5.486754283415e-02       4.680719894532e+03 
       5.760510831425e-02       4.530339618517e+03 
       6.027835171637e-02       4.373350044104e+03 
       6.291928228254e-02       4.202077261292e+03 
       6.555065986030e-02       4.013307533174e+03 
       6.818959001011e-02       3.807435322076e+03 
       7.084954213506e-02       3.587808112811e+03 
       7.354155499585e-02       3.360040817929e+03 
       7.627499366680e-02       3.131228235273e+03 
       7.905804460386e-02       2.909074416338e+03 
       8.189805049547e-02       2.701010690401e+03 
       8.480174312555e-02       2.513394162599e+03 
       8.777540904834e-02       2.350864928492e+03 
       9.082500964948e-02       2.215902276184e+03 
       9.395626940781e-02       2.108576319750e+03 
       9.717474146512e-02       2.026468965235e+03 
       1.004858566759e-01       1.964754626805e+03 
       1.038949604343e-01       1.916490252313e+03 
       1.074073403580e-01       1.873225194947e+03 
       1.110282471032e-01       1.826046148604e+03 
       1.147629100545e-01       1.767059907666e+03 
       1.186165492733e-01       1.691086629136e+03 
       1.225943848573e-01       1.597084788639e+03 
       1.267016447040e-01       1.488719599722e+03 
       1.309435715741e-01       1.373671418906e+03 
       1.353254302849e-01       1.261741385981e+03 
       1.398525158246e-01       1.162322417969e+03 
       1.445301631545e-01       1.082038540294e+03 
       1.493637594481e-01       1.023171365480e+03 
       1.543587595075e-01       9.831028334120e+02 
       1.595207050889e-01       9.548081338711e+02 
       1.648552488679e-01       9.285360350503e+02 
       1.703681837763e-01       8.947634373815e+02 
       1.760654784586e-01       8.477979494472e+02 
       1.819533196237e-01       7.883598632525e+02 
       1.880381621242e-01       7.233432232355e+02 
       1.943267876831e-01       6.624762537365e+02 
       2.008263733213e-01       6.136763765294e+02 
       2.075445707359e-01       5.795557916360e+02 
       2.144895981535e-01       5.564843762652e+02 
       2.216703465539e-01       5.364615566665e+02 
       2.290965026688e-01       5.113921805717e+02 
       2.367786918264e-01       4.779571016933e+02 
       2.447286446027e-01       4.396485661525e+02 
       2.529593924143e-01       4.038722796714e+02 
       2.614854987434e-01       3.762873512452e+02 
       2.703233347583e-01       3.568612847951e+02 
       2.794914108845e-01       3.403484052241e+02 
       2.890107796677e-01       3.208710567590e+02 
       2.989055304763e-01       2.971635845957e+02 
       3.092034038498e-01       2.733154799360e+02 
       3.199365635552e-01       2.539281521429e+02 
       3.311425791551e-01       2.391152532580e+02 
       3.428656934311e-01       2.248914595359e+02 
       3.551584810958e-01       2.084506724206e+02 
       3.680840539991e-01       1.916278728180e+02 
       3.817190438612e-01       1.775028613848e+02 
       3.961577144109e-01       1.654562232334e+02 
       4.115177527572e-01       1.527660450617e+02 
       4.279486242079e-01       1.397320295435e+02 
       4.456439594267e-01       1.283207057825e+02 
       4.648605057297e-01       1.175621342668e+02 
       4.859481939008e-01       1.064523878512e+02 
       5.093999067768e-01       9.618946780723e+01 
       5.359380701446e-01       8.606517771724e+01 
       5.666744318905e-01       7.608611186100e+01 
       6.034259099909e-01       6.616476968807e+01 
       6.493894660070e-01       5.615353971429e+01 
       7.106973836218e-01       4.579301032212e+01 
       8.000686059090e-01       3.493389145502e+01 
       9.428588398942e-01       2.387902311216e+01 
       1.166743431302e+00       1.445389105930e+01 
       1.467379533242e+00       8.339698889249e+00 
       1.847299134115e+00       4.756792820119e+00 
       2.325611759304e+00       2.690673712274e+00 
       2.927771741731e+00       1.510564333214e+00 
       3.685846245598e+00       8.422617594768e-01 
       4.640205502550e+00       4.667094585273e-01 
       5.841672623107e+00       2.571396015215e-01 
       7.354230112611e+00       1.409345125744e-01 
       9.258427172948e+00       7.687218553165e-02 
       1.165566924127e+01       4.174237701477e-02 
