# Matter power spectrum P(k) at redshift z=2.5
# for k=2.32511e-07 to 11.6696 h/Mpc,
# number of wavenumbers equal to 139
#    1:k (h/Mpc)              2:P (Mpc/h)^3        
       2.325109365254e-07       7.474392638838e-02 
       2.927139265119e-07       9.371862494023e-02 
       3.685050004719e-07       1.175102925531e-01 
       4.639203094673e-07       1.473417782727e-01 
       5.840410666358e-07       1.847463668943e-01 
       7.352641403192e-07       2.316465869743e-01 
       9.256427106288e-07       2.904530254701e-01 
       1.165315130653e-06       3.641882272717e-01 
       1.467044830727e-06       4.566420484940e-01 
       1.846900017643e-06       5.725664478283e-01 
       2.325109365254e-06       7.179197278531e-01 
       2.927139265119e-06       9.001727790462e-01 
       3.685050004719e-06       1.128693066848e+00 
       4.639203094673e-06       1.415226095725e+00 
       5.840410666358e-06       1.774499092663e+00 
       7.352641403192e-06       2.224977932788e+00 
       9.256427106288e-06       2.789816197082e+00 
       1.165315130653e-05       3.498045116821e+00 
       1.467044830727e-05       4.386065507428e+00 
       1.846900017643e-05       5.499518276001e+00 
       2.325109365254e-05       6.895629422578e+00 
       2.927139265119e-05       8.646149653553e+00 
       3.685050004719e-05       1.084103885367e+01 
       4.639203094673e-05       1.359308314388e+01 
       5.840410666358e-05       1.704367852773e+01 
       7.352641403192e-05       2.137007191098e+01 
       9.256427106288e-05       2.679441866093e+01 
       1.165315130653e-04       3.359509675659e+01 
       1.467044830727e-04       4.212080851069e+01 
       1.846900017643e-04       5.280809549671e+01 
       2.325109365254e-04       6.620297331957e+01 
       2.927139265119e-04       8.298742418841e+01 
       3.685050004719e-04       1.040113985609e+02 
       4.639203094673e-04       1.303306562211e+02 
       5.840410666358e-04       1.632500602852e+02 
       7.352641403192e-04       2.043706783267e+02 
       9.256427106288e-04       2.556373033255e+02 
       1.165315130653e-03       3.193812196728e+02 
       1.467044830727e-03       3.983510470264e+02 
       1.846900017643e-03       4.957172160787e+02 
       2.325109365254e-03       6.150119851761e+02 
       2.927139265119e-03       7.599406775635e+02 
       3.685050004719e-03       9.340362568712e+02 
       4.639203094673e-03       1.140078130382e+03 
       5.840410666358e-03       1.379150469803e+03 
       7.352641403192e-03       1.649257517907e+03 
       9.256427106288e-03       1.943420164163e+03 
       1.165315130653e-02       2.247262271936e+03 
       1.467044830727e-02       2.536540864571e+03 
       1.846900017087e-02       2.776092870975e+03 
       2.325108400908e-02       2.923735531573e+03 
       2.926878203071e-02       2.944593065861e+03 
       3.669563591226e-02       2.839588783395e+03 
       4.413924347738e-02       2.691471064535e+03 
       4.950847102580e-02       2.587167651096e+03 
       5.371519462038e-02       2.510059013896e+03 
       5.737029967820e-02       2.444986813919e+03 
       6.072704301686e-02       2.385169388993e+03 
       6.391086505325e-02       2.327093460887e+03 
       6.699350746441e-02       2.268777542178e+03 
       7.002046785744e-02       2.209127609378e+03 
       7.302293975204e-02       2.147658259106e+03 
       7.602367623826e-02       2.084349146758e+03 
       7.904014606506e-02       2.019548895632e+03 
       8.208635732446e-02       1.953892517962e+03 
       8.517397228793e-02       1.888214440624e+03 
       8.831302071185e-02       1.823453057761e+03 
       9.151237363426e-02       1.760547350849e+03 
       9.478006796684e-02       1.700330556420e+03 
       9.812353461672e-02       1.643428666284e+03 
       1.015497621838e-01       1.590174556372e+03 
       1.050654163922e-01       1.540547345171e+03 
       1.086769283339e-01       1.494149759633e+03 
       1.123905602513e-01       1.450233377597e+03 
       1.162124548431e-01       1.407780108139e+03 
       1.201486723125e-01       1.365640691197e+03 
       1.242052182194e-01       1.322720302938e+03 
       1.283880644335e-01       1.278186479677e+03 
       1.327031649766e-01       1.231657228712e+03 
       1.371564682013e-01       1.183319757696e+03 
       1.417539265318e-01       1.133933577190e+03 
       1.465015048426e-01       1.084694600717e+03 
       1.514051884608e-01       1.036973958699e+03 
       1.564709917146e-01       9.919849891181e+02 
       1.617049679161e-01       9.504631177636e+02 
       1.671132216436e-01       9.124502858526e+02 
       1.727019241709e-01       8.772627816813e+02 
       1.784773328833e-01       8.436811505582e+02 
       1.844458155137e-01       8.103385283889e+02 
       1.906138800302e-01       7.762017662944e+02 
       1.969882110149e-01       7.409681848016e+02 
       2.035757134000e-01       7.051919614369e+02 
       2.103835644662e-01       6.700448191662e+02 
       2.174192750933e-01       6.367880596397e+02 
       2.246907613672e-01       6.061908571706e+02 
       2.322064278356e-01       5.781804264629e+02 
       2.399752639594e-01       5.519153735464e+02 
       2.480069556654e-01       5.262704307344e+02 
       2.563120143966e-01       5.004843161415e+02 
       2.649019267035e-01       4.745813954276e+02 
       2.737893282873e-01       4.492755778962e+02 
       2.829882075478e-01       4.254080957466e+02 
       2.925141452019e-01       4.033242267548e+02 
       3.023845985480e-01       3.826587718421e+02 
       3.126192416382e-01       3.626932218241e+02 
       3.232403762510e-01       3.429787525636e+02 
       3.342734335089e-01       3.236663200112e+02 
       3.457475928369e-01       3.052395021062e+02 
       3.576965545604e-01       2.879462289694e+02 
       3.701595161119e-01       2.715488992221e+02 
       3.831824216062e-01       2.556496755732e+02 
       3.968195836933e-01       2.401582677052e+02 
       4.111358204066e-01       2.252940717032e+02 
       4.262093169443e-01       2.111667313324e+02 
       4.421355279396e-01       1.975938429805e+02 
       4.590326060669e-01       1.844076834390e+02 
       4.770491254336e-01       1.716648338911e+02 
       4.963753526048e-01       1.593972434740e+02 
       5.172601791080e-01       1.474747026176e+02 
       5.400374239502e-01       1.358357052806e+02 
       5.651683094260e-01       1.244673976366e+02 
       5.933132470172e-01       1.132595724916e+02 
       6.254598354215e-01       1.021286719368e+02 
       6.631659568713e-01       9.094519676219e+01 
       7.090565362805e-01       7.953366048647e+01 
       7.679225604614e-01       6.764639614640e+01 
       8.493106945760e-01       5.496927821884e+01 
       9.732415139922e-01       4.130763469419e+01 
       1.174274072455e+00       2.760799925848e+01 
       1.469375781247e+00       1.685223064300e+01 
       1.849511435246e+00       1.002524265596e+01 
       2.328394491378e+00       5.892845212053e+00 
       2.931274990818e+00       3.427963338065e+00 
       3.690256574897e+00       1.975545377644e+00 
       4.645757778178e+00       1.128959592506e+00 
       5.848662523989e+00       6.402680947549e-01 
       7.363029876458e+00       3.606169183768e-01 
       9.269505419272e+00       2.018378192119e-01 
       1.166961592709e+01       1.123233648070e-01 
