# Matter power spectrum P(k) at redshift z=0.5
# for k=1.99114e-07 to 12.5805 h/Mpc,
# number of wavenumbers equal to 140
#    1:k (h/Mpc)              2:P (Mpc/h)^3        
       1.991137879768e-07       9.675089765512e-01 
       2.506694075226e-07       1.199457882564e+00 
       3.155740870896e-07       1.487013812297e+00 
       3.972842375408e-07       1.843507895736e+00 
       5.001512223454e-07       2.285467243885e+00 
       6.296530835506e-07       2.833381147641e+00 
       7.926862674964e-07       3.512650962573e+00 
       9.979328857314e-07       4.354767716799e+00 
       1.256323069112e-06       5.398772034796e+00 
       1.581617037129e-06       6.693064057860e+00 
       1.991137879768e-06       8.297647263188e+00 
       2.506694075226e-06       1.028691019941e+01 
       3.155740870896e-06       1.275307508477e+01 
       3.972842375408e-06       1.581047311202e+01 
       5.001512223454e-06       1.960084460383e+01 
       6.296530835506e-06       2.429990961582e+01 
       7.926862674964e-06       3.012551336578e+01 
       9.979328857314e-06       3.734772364068e+01 
       1.256323069112e-05       4.630134741384e+01 
       1.581617037129e-05       5.740144511551e+01 
       1.991137879768e-05       7.116255834422e+01 
       2.506694075226e-05       8.822253548242e+01 
       3.155740870896e-05       1.093720462778e+02 
       3.972842375408e-05       1.355911271630e+02 
       5.001512223454e-05       1.680943995237e+02 
       6.296530835506e-05       2.083869555615e+02 
       7.926862674964e-05       2.583333037886e+02 
       9.979328857314e-05       3.202421840085e+02 
       1.256323069112e-04       3.969704359157e+02 
       1.581617037129e-04       4.920493034852e+02 
       1.991137879768e-04       6.098363231043e+02 
       2.506694075226e-04       7.556948387628e+02 
       3.155740870896e-04       9.362005681168e+02 
       3.972842375408e-04       1.159369825862e+03 
       5.001512223454e-04       1.434896867117e+03 
       6.296530835506e-04       1.774379512828e+03 
       7.926862674964e-04       2.191502907696e+03 
       9.979328857314e-04       2.702126766028e+03 
       1.256323069112e-03       3.324141840545e+03 
       1.581617037129e-03       4.076849851467e+03 
       1.991137879768e-03       4.979653582238e+03 
       2.506694075226e-03       6.049799721539e+03 
       3.155740870896e-03       7.298764547204e+03 
       3.972842375408e-03       8.727091096727e+03 
       5.001512223454e-03       1.031703038262e+04 
       6.296530835506e-03       1.202320964248e+04 
       7.926862674964e-03       1.376159487366e+04 
       9.979328857314e-03       1.539798136572e+04 
       1.256323069112e-02       1.674050746965e+04 
       1.581617036967e-02       1.754772103285e+04 
       1.991137513951e-02       1.757616895172e+04 
       2.506571009895e-02       1.669765851883e+04 
       3.146999938828e-02       1.508989261119e+04 
       3.819546323696e-02       1.349309434041e+04 
       4.313382189282e-02       1.253891725696e+04 
       4.693476180746e-02       1.191883287837e+04 
       5.020479196339e-02       1.143854067921e+04 
       5.319155964041e-02       1.102260575364e+04 
       5.601504239640e-02       1.063538497804e+04 
       5.874278086754e-02       1.025800216146e+04 
       6.141711528831e-02       9.880427267806e+03 
       6.406681557904e-02       9.498179459981e+03 
       6.671271514540e-02       9.110671115962e+03 
       6.937071174193e-02       8.720168339579e+03 
       7.205348733154e-02       8.330966734690e+03 
       7.477155257904e-02       7.948622721836e+03 
       7.753391158400e-02       7.579189630736e+03 
       8.034850147204e-02       7.228463662140e+03 
       8.322249245696e-02       6.901275306775e+03 
       8.616249809152e-02       6.600873570627e+03 
       8.917472577492e-02       6.328454067218e+03 
       9.226508635267e-02       6.082885532632e+03 
       9.543927498184e-02       5.860674681585e+03 
       9.870283135677e-02       5.656235542163e+03 
       1.020611848267e-01       5.462482894663e+03 
       1.055196882907e-01       5.271762727613e+03 
       1.090836436788e-01       5.077046619486e+03 
       1.127583211171e-01       4.873220514595e+03 
       1.165489734028e-01       4.658193219891e+03 
       1.204608470965e-01       4.433499909457e+03 
       1.244991913336e-01       4.204130484080e+03 
       1.286692653191e-01       3.977493821400e+03 
       1.329763453814e-01       3.761687529539e+03 
       1.374257324060e-01       3.563478483878e+03 
       1.420227604354e-01       3.386521954307e+03 
       1.467728071992e-01       3.230317629645e+03 
       1.516813073253e-01       3.090258972265e+03 
       1.567537689730e-01       2.958909155300e+03 
       1.619957946224e-01       2.828314255405e+03 
       1.674131067543e-01       2.692728545698e+03 
       1.730115791604e-01       2.550731415538e+03 
       1.787972746418e-01       2.405699342688e+03 
       1.847764898902e-01       2.264209240447e+03 
       1.909558084114e-01       2.132978925651e+03 
       1.973421624516e-01       2.015767439025e+03 
       2.039429050400e-01       1.911737432574e+03 
       2.107658934789e-01       1.816116765337e+03 
       2.178195859168e-01       1.722911643708e+03 
       2.251131530544e-01       1.628279235937e+03 
       2.326566075847e-01       1.532538088057e+03 
       2.404609547071e-01       1.439427977605e+03 
       2.485383680257e-01       1.353103957517e+03 
       2.569023964309e-01       1.275074974704e+03 
       2.655682092693e-01       1.203356297527e+03 
       2.745528893925e-01       1.134396817153e+03 
       2.838757867500e-01       1.066107325628e+03 
       2.935589493896e-01       9.992947928567e+02 
       3.036276545177e-01       9.362361680567e+02 
       3.141110703791e-01       8.780051592192e+02 
       3.250430912244e-01       8.234467784774e+02 
       3.364634042677e-01       7.707655870252e+02 
       3.484188719729e-01       7.195996448060e+02 
       3.609653496355e-01       6.709285624179e+02 
       3.741701142784e-01       6.252118221131e+02 
       3.881151686630e-01       5.816683993351e+02 
       4.029018252701e-01       5.396141082382e+02 
       4.186572082746e-01       4.993013619856e+02 
       4.355437094643e-01       4.608764265866e+02 
       4.537731378943e-01       4.238449238502e+02 
       4.736285994249e-01       3.879951633628e+02 
       4.954996422046e-01       3.533214647913e+02 
       5.199412836351e-01       3.194689439488e+02 
       5.477784848519e-01       2.862040945765e+02 
       5.803028580111e-01       2.531779573854e+02 
       6.196706695030e-01       2.199301702473e+02 
       6.697745203778e-01       1.858304289901e+02 
       7.382868576891e-01       1.500968604948e+02 
       8.412934453898e-01       1.122566383121e+02 
       1.008162521565e+00       7.451351694898e+01 
       1.258434088986e+00       4.461802369962e+01 
       1.583799471655e+00       2.592152292958e+01 
       1.993880957647e+00       1.489527689917e+01 
       2.510147398546e+00       8.480486562048e+00 
       3.160088347377e+00       4.788217538115e+00 
       3.978315524028e+00       2.683201672675e+00 
       5.008402509334e+00       1.493353884299e+00 
       6.305205191494e+00       8.259794099708e-01 
       7.937783042148e+00       4.542633949863e-01 
       9.993076785069e+00       2.485334574638e-01 
       1.258053830673e+01       1.353260569521e-01 
