# Matter power spectrum P(k) at redshift z=2.5
# for k=1.649e-07 to 10.4155 h/Mpc,
# number of wavenumbers equal to 140
#    1:k (h/Mpc)              2:P (Mpc/h)^3        
       1.649003697786e-07       2.782870722307e-01 
       2.075972659285e-07       3.488855893135e-01 
       2.613494734964e-07       4.373942110419e-01 
       3.290194935436e-07       5.483565432278e-01 
       4.142110013977e-07       6.874688569381e-01 
       5.214607555043e-07       8.618725068618e-01 
       6.564801963578e-07       1.080520533929e+00 
       8.264596015344e-07       1.354637270251e+00 
       1.040450994193e-06       1.698294540057e+00 
       1.309850196316e-06       2.129134035879e+00 
       1.649003697786e-06       2.669272949964e+00 
       2.075972659285e-06       3.346439348695e+00 
       2.613494734964e-06       4.195395568403e+00 
       3.290194935436e-06       5.259722684550e+00 
       4.142110013977e-06       6.594057633419e+00 
       5.214607555043e-06       8.266897772240e+00 
       6.564801963578e-06       1.036411672444e+01 
       8.264596015344e-06       1.299337177229e+01 
       1.040450994193e-05       1.628962859217e+01 
       1.309850196316e-05       2.042208600303e+01 
       1.649003697786e-05       2.560285441057e+01 
       2.075972659285e-05       3.209782980963e+01 
       2.613494734964e-05       4.024031436656e+01 
       3.290194935436e-05       5.044806844452e+01 
       4.142110013977e-05       6.324464114713e+01 
       5.214607555043e-05       7.928601793177e+01 
       6.564801963578e-05       9.939384208194e+01 
       8.264596015344e-05       1.245966952774e+02 
       1.040450994193e-04       1.561811236492e+02 
       1.309850196316e-04       1.957541817640e+02 
       1.649003697786e-04       2.453190631787e+02 
       2.075972659285e-04       3.073645623492e+02 
       2.613494734964e-04       3.849671033690e+02 
       3.290194935436e-04       4.819000446592e+02 
       4.142110013977e-04       6.027380803585e+02 
       5.214607555043e-04       7.529349745026e+02 
       6.564801963578e-04       9.388438782804e+02 
       8.264596015344e-04       1.167647678317e+03 
       1.040450994193e-03       1.447166545720e+03 
       1.309850196316e-03       1.785452154841e+03 
       1.649003697786e-03       2.189900461581e+03 
       2.075972659285e-03       2.665692460431e+03 
       2.613494734964e-03       3.213706037734e+03 
       3.290194935436e-03       3.827775899329e+03 
       4.142110013977e-03       4.490847419374e+03 
       5.214607555043e-03       5.170674110175e+03 
       6.564801963578e-03       5.814864299127e+03 
       8.264596015344e-03       6.346065087670e+03 
       1.040450994193e-02       6.659486600482e+03 
       1.309850196315e-02       6.629910557013e+03 
       1.649003688317e-02       6.144026507645e+03 
       2.075964822625e-02       5.178730258418e+03 
       2.612333655816e-02       3.914621790580e+03 
       3.249128259700e-02       2.798154749519e+03 
       3.796124447060e-02       2.250438792735e+03 
       4.191144401682e-02       2.038033836977e+03 
       4.515263545718e-02       1.938165714606e+03 
       4.803888923686e-02       1.881132445536e+03 
       5.072667313771e-02       1.838404881543e+03 
       5.329823253549e-02       1.795189938085e+03 
       5.580263905565e-02       1.743040673570e+03 
       5.827200652786e-02       1.677423375009e+03 
       6.072890115499e-02       1.596773254512e+03 
       6.319011817881e-02       1.501989115920e+03 
       6.566877341259e-02       1.395986069766e+03 
       6.817553924793e-02       1.283166307408e+03 
       7.071941403405e-02       1.168786014099e+03 
       7.330822169044e-02       1.058270455499e+03 
       7.594894764302e-02       9.565674340116e+02 
       7.864797130612e-02       8.676310545752e+02 
       8.141123082903e-02       7.940981328301e+02 
       8.424434210625e-02       7.371618294790e+02 
       8.715268605502e-02       6.965869843109e+02 
       9.014147334309e-02       6.707836956149e+02 
       9.321579275777e-02       6.568789147676e+02 
       9.638064750462e-02       6.508065308197e+02 
       9.964098249123e-02       6.475316397443e+02 
       1.030017048403e-01       6.415691734041e+02 
       1.064676993378e-01       6.278799436561e+02 
       1.100438401633e-01       6.030221710629e+02 
       1.137350000117e-01       5.661900566770e+02 
       1.175460575576e-01       5.196529569235e+02 
       1.214819041120e-01       4.682619002531e+02 
       1.255474502575e-01       4.181008832178e+02 
       1.297476332043e-01       3.747957738735e+02 
       1.340874255880e-01       3.421318979422e+02 
       1.385718464093e-01       3.213494334690e+02 
       1.432059748104e-01       3.110398799323e+02 
       1.479949673709e-01       3.074197737098e+02 
       1.529440796052e-01       3.050486371750e+02 
       1.580586923451e-01       2.983114608320e+02 
       1.633443436998e-01       2.835650787686e+02 
       1.688067673140e-01       2.609095179401e+02 
       1.744519376863e-01       2.342100377652e+02 
       1.802861233891e-01       2.090686120076e+02 
       1.863159491467e-01       1.900384769184e+02 
       1.925484678973e-01       1.787374508698e+02 
       1.989912442066e-01       1.734494608827e+02 
       2.056524507304e-01       1.700027358049e+02 
       2.125409798667e-01       1.638487100499e+02 
       2.196665733346e-01       1.527904140095e+02 
       2.270399732008e-01       1.384279166267e+02 
       2.346730989144e-01       1.247367707246e+02 
       2.425792562878e-01       1.149410878343e+02 
       2.507733861928e-01       1.093442703933e+02 
       2.592723632017e-01       1.054309503718e+02 
       2.680953577356e-01       1.000267813771e+02 
       2.772642798544e-01       9.211843721742e+01 
       2.868043291758e-01       8.361354747872e+01 
       2.967446843678e-01       7.700537490453e+01 
       3.071193784856e-01       7.267548828175e+01 
       3.179684251132e-01       6.877474107053e+01 
       3.293392879955e-01       6.368441089553e+01 
       3.412888288313e-01       5.805345170708e+01 
       3.538859328752e-01       5.348877599486e+01 
       3.672151150429e-01       4.997607751317e+01 
       3.813815770973e-01       4.619688846081e+01 
       3.965184683542e-01       4.204045916032e+01 
       4.127975918087e-01       3.849218124782e+01 
       4.304456805114e-01       3.531993245407e+01 
       4.497700318734e-01       3.191011630859e+01 
       4.712005765539e-01       2.878052857051e+01 
       4.953623364672e-01       2.577259971574e+01 
       5.232075411428e-01       2.275744390865e+01 
       5.562731956537e-01       1.982410186743e+01 
       5.972231193214e-01       1.686792382434e+01 
       6.510811703970e-01       1.383595255902e+01 
       7.281482291125e-01       1.067988947419e+01 
       8.495687377350e-01       7.445884016946e+00 
       1.043603091352e+00       4.571516135990e+00 
       1.311270632592e+00       2.638475043219e+00 
       1.650740053968e+00       1.503827314702e+00 
       2.078158393064e+00       8.508616615080e-01 
       2.616246410640e+00       4.782425619432e-01 
       3.293659089871e+00       2.671877212239e-01 
       4.146471126025e+00       1.484512286105e-01 
       5.220097869823e+00       8.206258040629e-02 
       6.571713860373e+00       4.515152183273e-02 
       8.273297577864e+00       2.473516810561e-02 
       1.041546456011e+01       1.349584489382e-02 
