# Matter power spectrum P(k) at redshift z=1
# for k=1.95701e-07 to 12.3654 h/Mpc,
# number of wavenumbers equal to 140
#    1:k (h/Mpc)              2:P (Mpc/h)^3        
       1.957009798611e-07       6.378602804865e-01 
       2.463729366601e-07       7.915449073280e-01 
       3.101651507398e-07       9.822579631476e-01 
       3.904747901193e-07       1.218920994148e+00 
       4.915786359462e-07       1.512605083054e+00 
       6.188608366878e-07       1.877048752963e+00 
       7.790996336704e-07       2.329300653316e+00 
       9.808283271472e-07       2.890517091472e+00 
       1.234789705653e-06       3.586951717609e+00 
       1.554508138669e-06       4.451183657273e+00 
       1.957009798611e-06       5.523641536380e+00 
       2.463729366601e-06       6.854494682437e+00 
       3.101651507398e-06       8.505999951593e+00 
       3.904747901193e-06       1.055541391575e+01 
       4.915786359462e-06       1.309860656144e+01 
       6.188608366878e-06       1.625454537281e+01 
       7.790996336704e-06       2.017085922776e+01 
       9.808283271472e-06       2.503074172809e+01 
       1.234789705653e-05       3.106151558487e+01 
       1.554508138669e-05       3.854525615225e+01 
       1.957009798611e-05       4.783196602275e+01 
       2.463729366601e-05       5.935590709875e+01 
       3.101651507398e-05       7.365583467112e+01 
       3.904747901193e-05       9.140004184301e+01 
       4.915786359462e-05       1.134173108563e+02 
       6.188608366878e-05       1.407350723099e+02 
       7.790996336704e-05       1.746262700898e+02 
       9.808283271472e-05       2.166665649149e+02 
       1.234789705653e-04       2.688034689954e+02 
       1.554508138669e-04       3.334385665210e+02 
       1.957009798611e-04       4.135227333150e+02 
       2.463729366601e-04       5.126615427124e+02 
       3.101651507398e-04       6.352228587282e+02 
       3.904747901193e-04       7.864300284310e+02 
       4.915786359462e-04       9.724124411910e+02 
       6.188608366878e-04       1.200174701524e+03 
       7.790996336704e-04       1.477444598714e+03 
       9.808283271472e-04       1.812363557422e+03 
       1.234789705653e-03       2.212927829226e+03 
       1.554508138669e-03       2.685917020476e+03 
       1.957009798611e-03       3.235096924724e+03 
       2.463729366601e-03       3.858926032921e+03 
       3.101651507398e-03       4.547783689374e+03 
       3.904747901193e-03       5.281110604818e+03 
       4.915786359462e-03       6.024839041648e+03 
       6.188608366878e-03       6.730090075104e+03 
       7.790996336704e-03       7.333942526763e+03 
       9.808283271472e-03       7.762576201206e+03 
       1.234789705653e-02       7.937510044638e+03 
       1.554508138669e-02       7.786510735230e+03 
       1.957009798132e-02       7.263456109174e+03 
       2.463728493167e-02       6.382738639455e+03 
       3.101404898478e-02       5.262634715989e+03 
       3.889597255358e-02       4.147971875351e+03 
       4.687142712020e-02       3.381866875116e+03 
       5.263963546513e-02       2.997325618862e+03 
       5.714353807744e-02       2.756727950139e+03 
       6.104954927461e-02       2.571734495507e+03 
       6.463300335798e-02       2.412136432309e+03 
       6.802969658960e-02       2.265399513997e+03 
       7.131705789209e-02       2.126044335449e+03 
       7.454408230814e-02       1.992010581965e+03 
       7.774430319055e-02       1.863074850763e+03 
       8.094214600181e-02       1.740001365081e+03 
       8.415634134108e-02       1.624000560699e+03 
       8.740189398258e-02       1.516344947620e+03 
       9.069128504399e-02       1.418087087484e+03 
       9.403524037414e-02       1.329860463169e+03 
       9.744324050201e-02       1.251755559246e+03 
       1.009238697497e-01       1.183266292079e+03 
       1.044850614452e-01       1.123303706103e+03 
       1.081342738017e-01       1.070275786929e+03 
       1.118786181900e-01       1.022233831107e+03 
       1.157249538880e-01       9.770839804421e+02 
       1.196799587015e-01       9.328518779905e+02 
       1.237501818908e-01       8.879691826565e+02 
       1.279420839384e-01       8.415281103472e+02 
       1.322620664454e-01       7.934359255621e+02 
       1.367164946213e-01       7.444098500715e+02 
       1.413117142847e-01       6.957882460086e+02 
       1.460540649240e-01       6.491894324099e+02 
       1.509498901286e-01       6.061007988950e+02 
       1.560055465426e-01       5.675060627939e+02 
       1.612274123904e-01       5.336472308855e+02 
       1.666218965613e-01       5.039815828397e+02 
       1.721954491993e-01       4.773490130355e+02 
       1.779545747199e-01       4.523182544856e+02 
       1.839058481594e-01       4.276260707282e+02 
       1.900559357500e-01       4.025690615391e+02 
       1.964116206101e-01       3.771902109674e+02 
       2.029798344345e-01       3.521655687506e+02 
       2.097676960823e-01       3.284327593805e+02 
       2.167825579789e-01       3.067361116150e+02 
       2.240320613018e-01       2.873039670018e+02 
       2.315242009966e-01       2.698003504873e+02 
       2.392674018006e-01       2.535546229316e+02 
       2.472706066429e-01       2.379357078209e+02 
       2.555433790616e-01       2.226593383394e+02 
       2.640960216601e-01       2.078525533223e+02 
       2.729397131390e-01       1.938564745815e+02 
       2.820866671277e-01       1.809278786607e+02 
       2.915503169591e-01       1.690580013559e+02 
       3.013455317348e-01       1.580179754608e+02 
       3.114888706351e-01       1.475581145245e+02 
       3.219988845482e-01       1.375776296710e+02 
       3.328964769423e-01       1.281299823009e+02 
       3.442053397358e-01       1.192936479802e+02 
       3.559524851657e-01       1.110582550570e+02 
       3.681689018872e-01       1.033327009058e+02 
       3.808903736896e-01       9.603501312384e+01 
       3.941585136510e-01       8.914440465032e+01 
       4.080220874416e-01       8.266685243446e+01 
       4.225387302541e-01       7.658223995857e+01 
       4.377772080331e-01       7.084666368766e+01 
       4.538204445371e-01       6.542797312534e+01 
       4.707696470268e-01       6.031137024724e+01 
       4.887500426387e-01       5.547753861062e+01 
       5.079190347814e-01       5.089915746159e+01 
       5.284780979901e-01       4.655326606687e+01 
       5.506906337294e-01       4.241952715233e+01 
       5.749096822062e-01       3.847324068448e+01 
       6.016226271279e-01       3.468935091409e+01 
       6.315266555753e-01       3.104107875328e+01 
       6.656631114675e-01       2.749669009800e+01 
       7.056722270697e-01       2.401952012618e+01 
       7.543126468840e-01       2.056337173425e+01 
       8.166085583735e-01       1.707117989780e+01 
       9.025503061859e-01       1.347644488551e+01 
       1.033092919061e+00       9.761771455424e+00 
       1.244846193547e+00       6.221466612618e+00 
       1.557013927554e+00       3.595235999881e+00 
       1.959783163304e+00       2.029459330160e+00 
       2.467217809029e+00       1.136641171915e+00 
       3.106043192265e+00       6.323547318824e-01 
       3.910276704872e+00       3.496648250395e-01 
       4.922746710910e+00       1.922771664942e-01 
       6.197370930190e+00       1.051938928990e-01 
       7.802027750331e+00       5.728222059273e-02 
       9.822170998415e+00       3.105798868100e-02 
       1.236538066889e+01       1.677216528567e-02 
