# Matter power spectrum P(k) at redshift z=0
# for k=2.10254e-07 to 10.5491 h/Mpc,
# number of wavenumbers equal to 139
#    1:k (h/Mpc)              2:P (Mpc/h)^3        
       2.102535388843e-07       9.896016410034e-01 
       2.646935230211e-07       1.232112621889e+00 
       3.332294024686e-07       1.534053147907e+00 
       4.195109627248e-07       1.909986975018e+00 
       5.281330115004e-07       2.378046840873e+00 
       6.648800689853e-07       2.960809076004e+00 
       8.370344146410e-07       3.686382546162e+00 
       1.053763895138e-06       4.589764448689e+00 
       1.326610145620e-06       5.714528357165e+00 
       1.670103223865e-06       7.114925932853e+00 
       2.102535388843e-06       8.858503671716e+00 
       2.646935230211e-06       1.102936089215e+01 
       3.332294024686e-06       1.373220609199e+01 
       4.195109627248e-06       1.709740728838e+01 
       5.281330115004e-06       2.128727986445e+01 
       6.648800689853e-06       2.650391506504e+01 
       8.370344146410e-06       3.299892644766e+01 
       1.053763895138e-05       4.108558383023e+01 
       1.326610145620e-05       5.115391887418e+01 
       1.670103223865e-05       6.368952868667e+01 
       2.102535388843e-05       7.929698002735e+01 
       2.646935230211e-05       9.872893436733e+01 
       3.332294024686e-05       1.229223815805e+02 
       4.195109627248e-05       1.530436964586e+02 
       5.281330115004e-05       1.905446253231e+02 
       6.648800689853e-05       2.372317737169e+02 
       8.370344146410e-05       2.953526931663e+02 
       1.053763895138e-04       3.677022249015e+02 
       1.326610145620e-04       4.577532726071e+02 
       1.670103223865e-04       5.698164792150e+02 
       2.102535388843e-04       7.092330619669e+02 
       2.646935230211e-04       8.826037981263e+02 
       3.332294024686e-04       1.098054147348e+03 
       4.195109627248e-04       1.365530136235e+03 
       5.281330115004e-04       1.697112045359e+03 
       6.648800689853e-04       2.107323821562e+03 
       8.370344146410e-04       2.613400522729e+03 
       1.053763895138e-03       3.235428079862e+03 
       1.326610145620e-03       3.996164837946e+03 
       1.670103223865e-03       4.920290215519e+03 
       2.102535388843e-03       6.032812030226e+03 
       2.646935230211e-03       7.356175409923e+03 
       3.332294024686e-03       8.905689593585e+03 
       4.195109627248e-03       1.068282932559e+04 
       5.281330115004e-03       1.266558823174e+04 
       6.648800689853e-03       1.479582856608e+04 
       8.370344146410e-03       1.696388495055e+04 
       1.053763895138e-02       1.899117907272e+04 
       1.326610145620e-02       2.061645136362e+04 
       1.670103223848e-02       2.150116062636e+04 
       2.102535322045e-02       2.129006863015e+04 
       2.646899614969e-02       1.977978105267e+04 
       3.328605531753e-02       1.720659937030e+04 
       4.101232056785e-02       1.459258795288e+04 
       4.708211606372e-02       1.310103674640e+04 
       5.158543404492e-02       1.228840738752e+04 
       5.537177851810e-02       1.174039334739e+04 
       5.878745001523e-02       1.130753585498e+04 
       6.199243483816e-02       1.092245668512e+04 
       6.507373828757e-02       1.054930948271e+04 
       6.808455401173e-02       1.016796051599e+04 
       7.106034057338e-02       9.767981687924e+03 
       7.402638215949e-02       9.345935307964e+03 
       7.700172641634e-02       8.903824639173e+03 
       8.000140215519e-02       8.447897607305e+03 
       8.303774750764e-02       7.987475274211e+03 
       8.612124563722e-02       7.533700005721e+03 
       8.926107225720e-02       7.098217083029e+03 
       9.246546648439e-02       6.691869512136e+03 
       9.574198904248e-02       6.323506944210e+03 
       9.909770614158e-02       5.999001649380e+03 
       1.025393228333e-01       5.720536324413e+03 
       1.060732811018e-01       5.486204546167e+03 
       1.097058327653e-01       5.289964144683e+03 
       1.134430940231e-01       5.122012520869e+03 
       1.172910864145e-01       4.969687772419e+03 
       1.212557676093e-01       4.818989578165e+03 
       1.253430545590e-01       4.656701340905e+03 
       1.295588409523e-01       4.472863462263e+03 
       1.339090105193e-01       4.263059397605e+03 
       1.383994474728e-01       4.029785842168e+03 
       1.430360452004e-01       3.782260644867e+03 
       1.478247142128e-01       3.534441637120e+03 
       1.527713902809e-01       3.301653042502e+03 
       1.578820436521e-01       3.096731917943e+03 
       1.631626902092e-01       2.926746677058e+03 
       1.686194054151e-01       2.791100765506e+03 
       1.742583418778e-01       2.681490363652e+03 
       1.800857513608e-01       2.583955563503e+03 
       1.861080120610e-01       2.482974178779e+03 
       1.923316619811e-01       2.366791715805e+03 
       1.987634392389e-01       2.232047720085e+03 
       2.054103301927e-01       2.085239278326e+03 
       2.122796263217e-01       1.939721681071e+03 
       2.193789909060e-01       1.809433054500e+03 
       2.267165367009e-01       1.702464194511e+03 
       2.343009160293e-01       1.617544195722e+03 
       2.421414250226e-01       1.545011789825e+03 
       2.502481241756e-01       1.472069584713e+03 
       2.586319779508e-01       1.390071370118e+03 
       2.673050169391e-01       1.299553070862e+03 
       2.762805270928e-01       1.209145750101e+03 
       2.855732718913e-01       1.128824518740e+03 
       2.951997550757e-01       1.062592963434e+03 
       3.051785339582e-01       1.006060588121e+03 
       3.155305965022e-01       9.506315297496e+02 
       3.262798196993e-01       8.910388890205e+02 
       3.374535327319e-01       8.295669017781e+02 
       3.490832167163e-01       7.726896747706e+02 
       3.612053845819e-01       7.237354371181e+02 
       3.738627015438e-01       6.796671959744e+02 
       3.871054313577e-01       6.354130778847e+02 
       4.009933304115e-01       5.902491376908e+02 
       4.155981678044e-01       5.477518546350e+02 
       4.310071368734e-01       5.096949156343e+02 
       4.473275629334e-01       4.735582022411e+02 
       4.646935405146e-01       4.373936261529e+02 
       4.832755199744e-01       4.028389976733e+02 
       5.032945404984e-01       3.707343932940e+02 
       5.250440399017e-01       3.393667979581e+02 
       5.489245203302e-01       3.087738867887e+02 
       5.755010531772e-01       2.795022162021e+02 
       6.056035849376e-01       2.505751065284e+02 
       6.405125788886e-01       2.221597789491e+02 
       6.823272645094e-01       1.936600254039e+02 
       7.347554398745e-01       1.647097394191e+02 
       8.049389697316e-01       1.346279112646e+02 
       9.077257429936e-01       1.028821317611e+02 
       1.072428160648e+00       7.042830155741e+01 
       1.329180061712e+00       4.284235915976e+01 
       1.671935941556e+00       2.492284101253e+01 
       2.104822811812e+00       1.432937536766e+01 
       2.649814872914e+00       8.166076387998e+00 
       3.335919280043e+00       4.616724072383e+00 
       4.199673553341e+00       2.591271308867e+00 
       5.287075757540e+00       1.444892009789e+00 
       6.656034025249e+00       8.008520952066e-01 
       8.379450376152e+00       4.414526615327e-01 
       1.054910301541e+01       2.421162491349e-01 
