# Matter power spectrum P(k) at redshift z=1
# for k=2.12079e-07 to 10.6421 h/Mpc,
# number of wavenumbers equal to 139
#    1:k (h/Mpc)              2:P (Mpc/h)^3        
       2.120792838678e-07       3.756524555066e-01 
       2.669919997763e-07       4.703013569266e-01 
       3.361230132642e-07       5.887978715767e-01 
       4.231538028871e-07       7.371506127883e-01 
       5.327190755519e-07       9.228821159293e-01 
       6.706535815598e-07       1.155410284155e+00 
       8.443028363364e-07       1.446525942375e+00 
       1.062914295914e-06       1.810990714712e+00 
       1.338129817685e-06       2.267285541473e+00 
       1.684605631763e-06       2.838547790497e+00 
       2.120792838678e-06       3.553744477589e+00 
       2.669919997763e-06       4.449141084877e+00 
       3.361230132642e-06       5.570140448079e+00 
       4.231538028871e-06       6.973584943306e+00 
       5.327190755519e-06       8.730638680763e+00 
       6.706535815598e-06       1.093039579751e+01 
       8.443028363364e-06       1.368439769875e+01 
       1.062914295914e-05       1.713228808351e+01 
       1.338129817685e-05       2.144889204874e+01 
       1.684605631763e-05       2.685307735735e+01 
       2.120792838678e-05       3.361884542234e+01 
       2.669919997763e-05       4.208921092564e+01 
       3.361230132642e-05       5.269356692664e+01 
       4.231538028871e-05       6.596940229384e+01 
       5.327190755519e-05       8.258944548728e+01 
       6.706535815598e-05       1.033955574054e+02 
       8.443028363364e-05       1.294409856805e+02 
       1.062914295914e-04       1.620429142551e+02 
       1.338129817685e-04       2.028475634183e+02 
       1.684605631763e-04       2.539103449229e+02 
       2.120792838678e-04       3.177936049653e+02 
       2.669919997763e-04       3.976840189788e+02 
       3.361230132642e-04       4.975302864941e+02 
       4.231538028871e-04       6.221988161262e+02 
       5.327190755519e-04       7.776401498072e+02 
       6.706535815598e-04       9.710523991224e+02 
       8.443028363364e-04       1.211021535731e+03 
       1.062914295914e-03       1.507609457137e+03 
       1.338129817685e-03       1.872326391891e+03 
       1.684605631763e-03       2.317833787850e+03 
       2.120792838678e-03       2.857172345477e+03 
       2.669919997763e-03       3.502393471922e+03 
       3.361230132642e-03       4.262340608155e+03 
       4.231538028871e-03       5.139393461823e+03 
       5.327190755519e-03       6.124788502590e+03 
       6.706535815598e-03       7.192562613788e+03 
       8.443028363364e-03       8.292316093197e+03 
       1.062914295914e-02       9.341381094199e+03 
       1.338129817685e-02       1.021906070000e+04 
       1.684605631717e-02       1.076987741314e+04 
       2.120792694381e-02       1.083111637355e+04 
       2.669856920075e-02       1.030595691283e+04 
       3.355675370695e-02       9.286361191016e+03 
       4.110666394909e-02       8.214255649561e+03 
       4.684232576622e-02       7.570506145223e+03 
       5.116361492276e-02       7.176721749880e+03 
       5.483429777259e-02       6.883582416646e+03 
       5.816389196952e-02       6.635006100373e+03 
       6.129835438886e-02       6.405249440103e+03 
       6.431826463506e-02       6.180843746847e+03 
       6.727342633116e-02       5.954635249587e+03 
       7.019731460185e-02       5.723389804672e+03 
       7.311395844283e-02       5.486627472330e+03 
       7.604156028497e-02       5.245906309116e+03 
       7.899454993785e-02       5.004257780367e+03 
       8.198482211079e-02       4.765656621171e+03 
       8.502251891832e-02       4.534487391385e+03 
       8.811654460911e-02       4.315014106691e+03 
       9.127491537400e-02       4.110878013439e+03 
       9.450500356621e-02       3.924657461722e+03 
       9.781371201227e-02       3.757524362671e+03 
       1.012076006515e-01       3.609029192309e+03 
       1.046929798118e-01       3.477046648201e+03 
       1.082759795964e-01       3.357914028165e+03 
       1.119626018294e-01       3.246794195697e+03 
       1.157587590699e-01       3.138277623926e+03 
       1.196703039413e-01       3.027194242510e+03 
       1.237030511865e-01       2.909534915894e+03 
       1.278627943072e-01       2.783298869714e+03 
       1.321553182739e-01       2.649029340198e+03 
       1.365864095492e-01       2.509820649262e+03 
       1.411618645064e-01       2.370696422943e+03 
       1.458874972202e-01       2.237447941418e+03 
       1.507691475441e-01       2.115203541769e+03 
       1.558126903436e-01       2.007102072242e+03 
       1.610240467322e-01       1.913428886887e+03 
       1.664091981392e-01       1.831477982255e+03 
       1.719742040279e-01       1.756266129649e+03 
       1.777252240742e-01       1.682033998811e+03 
       1.836685456153e-01       1.604180535912e+03 
       1.898106171825e-01       1.520953028057e+03 
       1.961580889483e-01       1.434099573076e+03 
       2.027178609585e-01       1.348029702992e+03 
       2.094971400817e-01       1.267760115395e+03 
       2.165035067161e-01       1.196596735293e+03 
       2.237449924514e-01       1.134670076452e+03 
       2.312301701122e-01       1.079042724575e+03 
       2.389682579289e-01       1.025390004733e+03 
       2.469692400165e-01       9.704415154768e+02 
       2.552440059288e-01       9.137735765536e+02 
       2.638045128302e-01       8.577360161095e+02 
       2.726639748582e-01       8.055187810344e+02 
       2.818370856071e-01       7.587748065880e+02 
       2.913402814710e-01       7.165657378313e+02 
       3.011920559870e-01       6.763759775415e+02 
       3.114133385674e-01       6.363125003752e+02 
       3.220279554148e-01       5.965561299710e+02 
       3.330631964970e-01       5.587436169204e+02 
       3.445505209392e-01       5.240126166018e+02 
       3.565264452223e-01       4.918396311802e+02 
       3.690336759005e-01       4.608614338514e+02 
       3.821225739492e-01       4.305391559981e+02 
       3.958530757969e-01       4.015174739615e+02 
       4.102972539734e-01       3.743533551305e+02 
       4.255427906201e-01       3.486300467861e+02 
       4.416977816442e-01       3.237371794314e+02 
       4.588975271525e-01       2.997756107665e+02 
       4.773143676879e-01       2.769827873088e+02 
       4.971723361258e-01       2.550647948524e+02 
       5.187696950168e-01       2.338015873178e+02 
       5.425149177155e-01       2.132503203360e+02 
       5.689866861643e-01       1.932089482339e+02 
       5.990391876926e-01       1.735128495226e+02 
       6.339984039240e-01       1.539885988996e+02 
       6.760547398540e-01       1.343588690252e+02 
       7.291126609668e-01       1.142693485251e+02 
       8.007673759929e-01       9.325553394801e+01 
       9.068830641547e-01       7.094636235494e+01 
       1.077915079902e+00       4.822233961973e+01 
       1.340499214667e+00       2.933277759277e+01 
       1.686662696568e+00       1.718540028890e+01 
       2.123371528041e+00       9.955227859794e+00 
       2.673166351796e+00       5.714828586884e+00 
       3.365317050223e+00       3.253900080420e+00 
       4.236683153269e+00       1.839041217693e+00 
       5.333668083371e+00       1.032430824300e+00 
       6.714690288231e+00       5.760674433124e-01 
       8.453294236182e+00       3.196376701875e-01 
       1.064206692730e+01       1.764479375888e-01 
