# Matter power spectrum P(k) at redshift z=1
# for k=1.97659e-07 to 12.4888 h/Mpc,
# number of wavenumbers equal to 140
#    1:k (h/Mpc)              2:P (Mpc/h)^3        
       1.976586698218e-07       7.133815409359e-01 
       2.488375223001e-07       8.842842036957e-01 
       3.132678802315e-07       1.096129500960e+00 
       3.943808951223e-07       1.358725935347e+00 
       4.964961307956e-07       1.684231802195e+00 
       6.250515959161e-07       2.087718120977e+00 
       7.868933377813e-07       2.587866427293e+00 
       9.906400193044e-07       3.207833729682e+00 
       1.247141894243e-06       3.976324679134e+00 
       1.570058622775e-06       4.928920590930e+00 
       1.976586698218e-06       6.109726842373e+00 
       2.488375223001e-06       7.573414913852e+00 
       3.132678802315e-06       9.387753590189e+00 
       3.943808951223e-06       1.163674647562e+01 
       4.964961307956e-06       1.442452098347e+01 
       6.250515959161e-06       1.788014868178e+01 
       7.868933377813e-06       2.216361980618e+01 
       9.906400193044e-06       2.747324781441e+01 
       1.247141894243e-05       3.405484540113e+01 
       1.570058622775e-05       4.221309399142e+01 
       1.976586698218e-05       5.232562756450e+01 
       2.488375223001e-05       6.486047203944e+01 
       3.132678802315e-05       8.039762627624e+01 
       3.943808951223e-05       9.965574200856e+01 
       4.964961307956e-05       1.235250558295e+02 
       6.250515959161e-05       1.531079373359e+02 
       7.868933377813e-05       1.897686168354e+02 
       9.906400193044e-05       2.351937845782e+02 
       1.247141894243e-04       2.914656860208e+02 
       1.570058622775e-04       3.611488335769e+02 
       1.976586698218e-04       4.473900730490e+02 
       2.488375223001e-04       5.540287472731e+02 
       3.132678802315e-04       6.857080431027e+02 
       3.943808951223e-04       8.479692965092e+02 
       4.964961307956e-04       1.047298508119e+03 
       6.250515959161e-04       1.291083261574e+03 
       7.868933377813e-04       1.587437939828e+03 
       9.906400193044e-04       1.944860623781e+03 
       1.247141894243e-03       2.371627101005e+03 
       1.570058622775e-03       2.874639876527e+03 
       1.976586698218e-03       3.457493680445e+03 
       2.488375223001e-03       4.117999162612e+03 
       3.132678802315e-03       4.845226857888e+03 
       3.943808951223e-03       5.616527114651e+03 
       4.964961307956e-03       6.394687747469e+03 
       6.250515959161e-03       7.126328305341e+03 
       7.868933377813e-03       7.742344597049e+03 
       9.906400193044e-03       8.160415371524e+03 
       1.247141894243e-02       8.290685052359e+03 
       1.570058622775e-02       8.047159872836e+03 
       1.976586697967e-02       7.371843928287e+03 
       2.488374685758e-02       6.281433917439e+03 
       3.132505652443e-02       4.930901621897e+03 
       3.931938220040e-02       3.643744033996e+03 
       4.764203315219e-02       2.828742499544e+03 
       5.372695789658e-02       2.483037428054e+03 
       5.842693519157e-02       2.300593504294e+03 
       6.247851779129e-02       2.172750405343e+03 
       6.618319717874e-02       2.063761744285e+03 
       6.968767968391e-02       1.958857603521e+03 
       7.307481306409e-02       1.851625638669e+03 
       7.639665284054e-02       1.739942812359e+03 
       7.968863317168e-02       1.624254803215e+03 
       8.297645012642e-02       1.506614574253e+03 
       8.627973568019e-02       1.389992261975e+03 
       8.961416677379e-02       1.277704133735e+03 
       9.299274783501e-02       1.172928146591e+03 
       9.642662785939e-02       1.078316854288e+03 
       9.992564122057e-02       9.957236802230e+02 
       1.034986770899e-01       9.260466902879e+02 
       1.071539384388e-01       8.691766165114e+02 
       1.108991275338e-01       8.240250770737e+02 
       1.147415810658e-01       7.886143605214e+02 
       1.186883698789e-01       7.602297272061e+02 
       1.227463732591e-01       7.356588539000e+02 
       1.269223345939e-01       7.115492099302e+02 
       1.312229031869e-01       6.848861317053e+02 
       1.356546656942e-01       6.535296411028e+02 
       1.402241697693e-01       6.166742711812e+02 
       1.449379419242e-01       5.750599803936e+02 
       1.498025012257e-01       5.308071973726e+02 
       1.548243701892e-01       4.868752337432e+02 
       1.600100840639e-01       4.462942207307e+02 
       1.653661995977e-01       4.114089459405e+02 
       1.708993042981e-01       3.833457929560e+02 
       1.766160271669e-01       3.618051709182e+02 
       1.825230518562e-01       3.451848042505e+02 
       1.886271331804e-01       3.310117822121e+02 
       1.949351179007e-01       3.166491703638e+02 
       2.014539706991e-01       3.001445223400e+02 
       2.081908062512e-01       2.809144630070e+02 
       2.151529283177e-01       2.598979239245e+02 
       2.223478767987e-01       2.390299167325e+02 
       2.297834837375e-01       2.202863839062e+02 
       2.374679393465e-01       2.047990239927e+02 
       2.454098692510e-01       1.924479033505e+02 
       2.536184243411e-01       1.820587358542e+02 
       2.621033848930e-01       1.720841657845e+02 
       2.708752810046e-01       1.614479134910e+02 
       2.799455319053e-01       1.500786127509e+02 
       2.893266073933e-01       1.387751311363e+02 
       2.990322155774e-01       1.285141474034e+02 
       3.090775223120e-01       1.197399636364e+02 
       3.194794093301e-01       1.121419101700e+02 
       3.302567802124e-01       1.050147117047e+02 
       3.414309261911e-01       9.786605575210e+01 
       3.530259676374e-01       9.075109811547e+01 
       3.650693923411e-01       8.406511080163e+01 
       3.775927189402e-01       7.806285460357e+01 
       3.906323240206e-01       7.262260887058e+01 
       4.042304858388e-01       6.745311343905e+01 
       4.184367184785e-01       6.243739006019e+01 
       4.333095009244e-01       5.768819909828e+01 
       4.489185515209e-01       5.330484927838e+01 
       4.653478686985e-01       4.921915122554e+01 
       4.826998691977e-01       4.532500515563e+01 
       5.011011324409e-01       4.162429743123e+01 
       5.207105532248e-01       3.815035632517e+01 
       5.417312062423e-01       3.486659780805e+01 
       5.644281135448e-01       3.173407746914e+01 
       5.891557426431e-01       2.875335606579e+01 
       6.164022228390e-01       2.590425387962e+01 
       6.468636968406e-01       2.316023448991e+01 
       6.815761074311e-01       2.050339945503e+01 
       7.221637465224e-01       1.790350185769e+01 
       7.713431210343e-01       1.532841533839e+01 
       8.340286819758e-01       1.273582576980e+01 
       9.199278983727e-01       1.007800898354e+01 
       1.049398905113e+00       7.337905762429e+00 
       1.259243056351e+00       4.706020974999e+00 
       1.572675613687e+00       2.718109145291e+00 
       1.979346002851e+00       1.528547434968e+00 
       2.491844173171e+00       8.529697905584e-01 
       3.137045944491e+00       4.729222233847e-01 
       3.949306857484e+00       2.606719897755e-01 
       4.971882761860e+00       1.429108137131e-01 
       6.259229553367e+00       7.796375161912e-02 
       7.879903142987e+00       4.233952823211e-02 
       9.920210309183e+00       2.289667881464e-02 
       1.248880484857e+01       1.233385050448e-02 
